# Granada HRES Library
# atmosphere = Spectrum  (atmosphere model used)
# feh = 0  (value for [Fe/H] for the model.)
# logg = 1 log(cm/s2) (value for Log(G) for the model.)
# teff = 7250 K (value for the effective temperature for the model. Temperatures are given in K)
#
# column 1: WAVELENGTH (ANGSTROM), Wavelength in Angstrom
# column 2: FLUX (ERG/CM2/S/A), Flux in erg/cm2/s/A
         3000.2        8.132e+6 
         3000.5        8.006e+6 
         3000.8        7.868e+6 
         3001.1        7.715e+6 
         3001.4        7.551e+6 
         3001.7        7.382e+6 
           3002        7.227e+6 
         3002.3         7.11e+6 
         3002.6        7.055e+6 
         3002.9        7.084e+6 
         3003.2        7.205e+6 
         3003.5        7.412e+6 
         3003.8        7.687e+6 
         3004.1        8.002e+6 
         3004.4        8.324e+6 
         3004.7        8.625e+6 
           3005        8.881e+6 
         3005.3        9.075e+6 
         3005.6        9.199e+6 
         3005.9        9.249e+6 
         3006.2        9.231e+6 
         3006.5         9.15e+6 
         3006.8        9.017e+6 
         3007.1        8.849e+6 
         3007.4        8.665e+6 
         3007.7        8.491e+6 
           3008        8.354e+6 
         3008.3        8.275e+6 
         3008.6        8.269e+6 
         3008.9        8.335e+6 
         3009.2         8.46e+6 
         3009.5         8.62e+6 
         3009.8        8.785e+6 
         3010.1        8.927e+6 
         3010.4         9.03e+6 
         3010.7        9.087e+6 
           3011        9.103e+6 
         3011.3        9.092e+6 
         3011.6        9.068e+6 
         3011.9        9.043e+6 
         3012.2        9.024e+6 
         3012.5         9.01e+6 
         3012.8        8.998e+6 
         3013.1        8.977e+6 
         3013.4        8.939e+6 
         3013.7        8.878e+6 
           3014        8.788e+6 
         3014.3        8.672e+6 
         3014.6        8.538e+6 
         3014.9        8.402e+6 
         3015.2        8.279e+6 
         3015.5        8.188e+6 
         3015.8        8.139e+6 
         3016.1        8.136e+6 
         3016.4        8.174e+6 
         3016.7        8.241e+6 
           3017        8.323e+6 
         3017.3        8.404e+6 
         3017.6        8.468e+6 
         3017.9        8.502e+6 
         3018.2        8.496e+6 
         3018.5        8.442e+6 
         3018.8        8.339e+6 
         3019.1        8.195e+6 
         3019.4        8.025e+6 
         3019.7        7.853e+6 
           3020        7.707e+6 
         3020.3        7.618e+6 
         3020.6         7.61e+6 
         3020.9        7.697e+6 
         3021.2        7.872e+6 
         3021.5         8.11e+6 
         3021.8        8.378e+6 
         3022.1        8.632e+6 
         3022.4         8.84e+6 
         3022.7        8.978e+6 
           3023        9.039e+6 
         3023.3        9.029e+6 
         3023.6         8.96e+6 
         3023.9         8.85e+6 
         3024.2        8.709e+6 
         3024.5        8.548e+6 
         3024.8        8.379e+6 
         3025.1        8.216e+6 
         3025.4        8.079e+6 
         3025.7        7.991e+6 
           3026        7.969e+6 
         3026.3        8.023e+6 
         3026.6        8.147e+6 
         3026.9        8.324e+6 
         3027.2        8.528e+6 
         3027.5        8.734e+6 
         3027.8        8.917e+6 
         3028.1        9.057e+6 
         3028.4        9.142e+6 
         3028.7        9.167e+6 
           3029        9.138e+6 
         3029.3        9.063e+6 
         3029.6        8.957e+6 
         3029.9        8.838e+6 
         3030.2        8.719e+6 
         3030.5        8.618e+6 
         3030.8        8.542e+6 
         3031.1        8.497e+6 
         3031.4        8.482e+6 
         3031.7        8.487e+6 
           3032        8.498e+6 
         3032.3        8.501e+6 
         3032.6        8.486e+6 
         3032.9        8.454e+6 
         3033.2        8.414e+6 
         3033.5        8.379e+6 
         3033.8        8.365e+6 
         3034.1        8.379e+6 
         3034.4        8.424e+6 
         3034.7         8.49e+6 
           3035        8.559e+6 
         3035.3        8.611e+6 
         3035.6        8.626e+6 
         3035.9        8.592e+6 
         3036.2        8.507e+6 
         3036.5        8.379e+6 
         3036.8        8.227e+6 
         3037.1        8.076e+6 
         3037.4        7.951e+6 
         3037.7        7.874e+6 
           3038        7.858e+6 
         3038.3        7.909e+6 
         3038.6        8.017e+6 
         3038.9        8.164e+6 
         3039.2        8.323e+6 
         3039.5        8.464e+6 
         3039.8        8.561e+6 
         3040.1        8.599e+6 
         3040.4        8.578e+6 
         3040.7        8.506e+6 
           3041        8.403e+6 
         3041.3        8.288e+6 
         3041.6        8.181e+6 
         3041.9        8.093e+6 
         3042.2        8.029e+6 
         3042.5        7.986e+6 
         3042.8        7.958e+6 
         3043.1        7.938e+6 
         3043.4        7.925e+6 
         3043.7        7.922e+6 
           3044        7.934e+6 
         3044.3        7.968e+6 
         3044.6        8.031e+6 
         3044.9        8.119e+6 
         3045.2        8.225e+6 
         3045.5        8.335e+6 
         3045.8        8.432e+6 
         3046.1        8.498e+6 
         3046.4        8.521e+6 
         3046.7        8.499e+6 
           3047        8.434e+6 
         3047.3        8.342e+6 
         3047.6        8.242e+6 
         3047.9        8.154e+6 
         3048.2        8.096e+6 
         3048.5         8.08e+6 
         3048.8        8.112e+6 
         3049.1        8.192e+6 
         3049.4        8.312e+6 
         3049.7        8.462e+6 
           3050        8.633e+6 
         3050.3        8.817e+6 
         3050.6        9.005e+6 
         3050.9        9.189e+6 
         3051.2        9.357e+6 
         3051.5        9.493e+6 
         3051.8        9.581e+6 
         3052.1        9.608e+6 
         3052.4        9.571e+6 
         3052.7        9.477e+6 
           3053        9.345e+6 
         3053.3        9.198e+6 
         3053.6         9.06e+6 
         3053.9        8.949e+6 
         3054.2        8.873e+6 
         3054.5        8.828e+6 
         3054.8        8.804e+6 
         3055.1        8.779e+6 
         3055.4        8.733e+6 
         3055.7        8.649e+6 
           3056        8.521e+6 
         3056.3        8.355e+6 
         3056.6         8.17e+6 
         3056.9        7.992e+6 
         3057.2        7.845e+6 
         3057.5        7.746e+6 
         3057.8        7.697e+6 
         3058.1         7.69e+6 
         3058.4         7.71e+6 
         3058.7        7.747e+6 
           3059          7.8e+6 
         3059.3        7.876e+6 
         3059.6        7.982e+6 
         3059.9        8.123e+6 
         3060.2        8.287e+6 
         3060.5        8.453e+6 
         3060.8        8.594e+6 
         3061.1        8.685e+6 
         3061.4        8.714e+6 
         3061.7         8.68e+6 
           3062        8.599e+6 
         3062.3        8.488e+6 
         3062.6        8.369e+6 
         3062.9        8.264e+6 
         3063.2        8.182e+6 
         3063.5        8.127e+6 
         3063.8        8.091e+6 
         3064.1         8.06e+6 
         3064.4        8.017e+6 
         3064.7        7.948e+6 
           3065        7.848e+6 
         3065.3        7.727e+6 
         3065.6        7.608e+6 
         3065.9        7.522e+6 
         3066.2          7.5e+6 
         3066.5        7.566e+6 
         3066.8        7.727e+6 
         3067.1        7.975e+6 
         3067.4        8.284e+6 
         3067.7        8.624e+6 
           3068        8.957e+6 
         3068.3        9.251e+6 
         3068.6         9.48e+6 
         3068.9        9.626e+6 
         3069.2        9.679e+6 
         3069.5        9.636e+6 
         3069.8        9.508e+6 
         3070.1        9.315e+6 
         3070.4        9.084e+6 
         3070.7        8.844e+6 
           3071        8.624e+6 
         3071.3        8.446e+6 
         3071.6        8.321e+6 
         3071.9        8.256e+6 
         3072.2        8.252e+6 
         3072.5          8.3e+6 
         3072.8        8.389e+6 
         3073.1        8.497e+6 
         3073.4        8.598e+6 
         3073.7        8.666e+6 
           3074        8.682e+6 
         3074.3        8.644e+6 
         3074.6        8.566e+6 
         3074.9        8.476e+6 
         3075.2        8.409e+6 
         3075.5        8.388e+6 
         3075.8        8.422e+6 
         3076.1          8.5e+6 
         3076.4        8.595e+6 
         3076.7        8.678e+6 
           3077        8.725e+6 
         3077.3        8.724e+6 
         3077.6        8.686e+6 
         3077.9        8.632e+6 
         3078.2        8.592e+6 
         3078.5        8.591e+6 
         3078.8        8.644e+6 
         3079.1        8.746e+6 
         3079.4        8.879e+6 
         3079.7        9.012e+6 
           3080        9.114e+6 
         3080.3        9.164e+6 
         3080.6        9.152e+6 
         3080.9        9.083e+6 
         3081.2        8.972e+6 
         3081.5        8.842e+6 
         3081.8        8.718e+6 
         3082.1        8.624e+6 
         3082.4         8.58e+6 
         3082.7        8.599e+6 
           3083        8.686e+6 
         3083.3        8.838e+6 
         3083.6         9.04e+6 
         3083.9        9.271e+6 
         3084.2          9.5e+6 
         3084.5          9.7e+6 
         3084.8        9.844e+6 
         3085.1        9.914e+6 
         3085.4        9.902e+6 
         3085.7        9.811e+6 
           3086        9.651e+6 
         3086.3        9.441e+6 
         3086.6        9.202e+6 
         3086.9        8.957e+6 
         3087.2        8.728e+6 
         3087.5        8.538e+6 
         3087.8        8.401e+6 
         3088.1        8.324e+6 
         3088.4         8.31e+6 
         3088.7        8.352e+6 
           3089        8.436e+6 
         3089.3        8.552e+6 
         3089.6        8.688e+6 
         3089.9        8.832e+6 
         3090.2        8.969e+6 
         3090.5        9.079e+6 
         3090.8        9.147e+6 
         3091.1        9.155e+6 
         3091.4        9.092e+6 
         3091.7        8.963e+6 
           3092        8.781e+6 
         3092.3        8.573e+6 
         3092.6        8.375e+6 
         3092.9        8.227e+6 
         3093.2        8.152e+6 
         3093.5        8.159e+6 
         3093.8        8.235e+6 
         3094.1         8.35e+6 
         3094.4        8.468e+6 
         3094.7        8.552e+6 
           3095        8.577e+6 
         3095.3        8.535e+6 
         3095.6        8.433e+6 
         3095.9        8.293e+6 
         3096.2        8.148e+6 
         3096.5        8.033e+6 
         3096.8        7.978e+6 
         3097.1        7.996e+6 
         3097.4        8.084e+6 
         3097.7        8.221e+6 
           3098        8.371e+6 
         3098.3        8.499e+6 
         3098.6        8.569e+6 
         3098.9        8.568e+6 
         3099.2        8.494e+6 
         3099.5        8.365e+6 
         3099.8        8.207e+6 
         3100.1        8.055e+6 
         3100.4        7.935e+6 
         3100.7        7.866e+6 
           3101        7.858e+6 
         3101.3        7.907e+6 
         3101.6        8.002e+6 
         3101.9        8.122e+6 
         3102.2        8.246e+6 
         3102.5        8.349e+6 
         3102.8        8.411e+6 
         3103.1        8.418e+6 
         3103.4        8.363e+6 
         3103.7        8.252e+6 
           3104        8.105e+6 
         3104.3        7.949e+6 
         3104.6        7.816e+6 
         3104.9        7.736e+6 
         3105.2        7.726e+6 
         3105.5        7.795e+6 
         3105.8        7.935e+6 
         3106.1        8.129e+6 
         3106.4        8.354e+6 
         3106.7        8.585e+6 
           3107        8.796e+6 
         3107.3        8.969e+6 
         3107.6        9.091e+6 
         3107.9        9.155e+6 
         3108.2        9.162e+6 
         3108.5        9.124e+6 
         3108.8        9.055e+6 
         3109.1        8.971e+6 
         3109.4        8.889e+6 
         3109.7        8.829e+6 
           3110        8.803e+6 
         3110.3        8.818e+6 
         3110.6        8.873e+6 
         3110.9        8.962e+6 
         3111.2        9.073e+6 
         3111.5        9.191e+6 
         3111.8        9.301e+6 
         3112.1        9.389e+6 
         3112.4        9.446e+6 
         3112.7        9.464e+6 
           3113        9.441e+6 
         3113.3         9.38e+6 
         3113.6        9.292e+6 
         3113.9        9.193e+6 
         3114.2        9.101e+6 
         3114.5        9.029e+6 
         3114.8        8.988e+6 
         3115.1        8.976e+6 
         3115.4        8.985e+6 
         3115.7          9.0e+6 
           3116          9.0e+6 
         3116.3        8.969e+6 
         3116.6        8.892e+6 
         3116.9        8.767e+6 
         3117.2        8.597e+6 
         3117.5        8.394e+6 
         3117.8        8.177e+6 
         3118.1        7.967e+6 
         3118.4        7.783e+6 
         3118.7        7.637e+6 
           3119        7.532e+6 
         3119.3        7.466e+6 
         3119.6        7.434e+6 
         3119.9        7.433e+6 
         3120.2        7.462e+6 
         3120.5        7.523e+6 
         3120.8        7.618e+6 
         3121.1        7.745e+6 
         3121.4          7.9e+6 
         3121.7        8.081e+6 
           3122        8.278e+6 
         3122.3        8.482e+6 
         3122.6        8.678e+6 
         3122.9        8.844e+6 
         3123.2        8.955e+6 
         3123.5        8.991e+6 
         3123.8        8.939e+6 
         3124.1        8.804e+6 
         3124.4        8.616e+6 
         3124.7         8.42e+6 
           3125        8.269e+6 
         3125.3        8.212e+6 
         3125.6        8.271e+6 
         3125.9        8.443e+6 
         3126.2        8.694e+6 
         3126.5        8.971e+6 
         3126.8         9.22e+6 
         3127.1        9.391e+6 
         3127.4         9.46e+6 
         3127.7        9.422e+6 
           3128        9.297e+6 
         3128.3        9.114e+6 
         3128.6        8.904e+6 
         3128.9        8.691e+6 
         3129.2        8.488e+6 
         3129.5        8.295e+6 
         3129.8        8.113e+6 
         3130.1        7.943e+6 
         3130.4        7.787e+6 
         3130.7        7.654e+6 
           3131        7.554e+6 
         3131.3        7.493e+6 
         3131.6        7.472e+6 
         3131.9         7.49e+6 
         3132.2        7.538e+6 
         3132.5        7.608e+6 
         3132.8        7.687e+6 
         3133.1        7.772e+6 
         3133.4        7.856e+6 
         3133.7        7.942e+6 
           3134        8.031e+6 
         3134.3        8.129e+6 
         3134.6        8.236e+6 
         3134.9        8.353e+6 
         3135.2         8.48e+6 
         3135.5        8.615e+6 
         3135.8        8.758e+6 
         3136.1        8.908e+6 
         3136.4        9.066e+6 
         3136.7        9.231e+6 
           3137        9.396e+6 
         3137.3        9.552e+6 
         3137.6        9.682e+6 
         3137.9        9.772e+6 
         3138.2        9.813e+6 
         3138.5        9.802e+6 
         3138.8        9.745e+6 
         3139.1        9.659e+6 
         3139.4        9.563e+6 
         3139.7        9.475e+6 
           3140        9.405e+6 
         3140.3         9.36e+6 
         3140.6        9.331e+6 
         3140.9        9.302e+6 
         3141.2        9.257e+6 
         3141.5        9.185e+6 
         3141.8        9.081e+6 
         3142.1         8.95e+6 
         3142.4        8.799e+6 
         3142.7        8.639e+6 
           3143        8.474e+6 
         3143.3         8.31e+6 
         3143.6        8.151e+6 
         3143.9        8.001e+6 
         3144.2         7.87e+6 
         3144.5        7.771e+6 
         3144.8         7.72e+6 
         3145.1        7.732e+6 
         3145.4         7.81e+6 
         3145.7         7.95e+6 
           3146        8.136e+6 
         3146.3        8.343e+6 
         3146.6         8.55e+6 
         3146.9         8.74e+6 
         3147.2        8.903e+6 
         3147.5        9.039e+6 
         3147.8        9.155e+6 
         3148.1        9.254e+6 
         3148.4        9.338e+6 
         3148.7        9.412e+6 
           3149        9.477e+6 
         3149.3        9.535e+6 
         3149.6        9.589e+6 
         3149.9         9.64e+6 
         3150.2        9.685e+6 
         3150.5        9.718e+6 
         3150.8        9.734e+6 
         3151.1        9.727e+6 
         3151.4        9.701e+6 
         3151.7        9.657e+6 
           3152        9.606e+6 
         3152.3        9.554e+6 
         3152.6        9.501e+6 
         3152.9        9.447e+6 
         3153.2        9.386e+6 
         3153.5        9.316e+6 
         3153.8        9.236e+6 
         3154.1        9.148e+6 
         3154.4        9.059e+6 
         3154.7        8.975e+6 
           3155        8.904e+6 
         3155.3        8.852e+6 
         3155.6        8.819e+6 
         3155.9        8.802e+6 
         3156.2        8.788e+6 
         3156.5         8.76e+6 
         3156.8        8.701e+6 
         3157.1        8.601e+6 
         3157.4         8.46e+6 
         3157.7        8.291e+6 
           3158        8.118e+6 
         3158.3         7.97e+6 
         3158.6        7.871e+6 
         3158.9        7.833e+6 
         3159.2        7.854e+6 
         3159.5        7.914e+6 
         3159.8        7.979e+6 
         3160.1        8.014e+6 
         3160.4        7.996e+6 
         3160.7        7.918e+6 
           3161        7.792e+6 
         3161.3        7.644e+6 
         3161.6        7.513e+6 
         3161.9        7.435e+6 
         3162.2        7.433e+6 
         3162.5        7.519e+6 
         3162.8        7.681e+6 
         3163.1        7.894e+6 
         3163.4        8.119e+6 
         3163.7        8.325e+6 
           3164        8.489e+6 
         3164.3        8.603e+6 
         3164.6        8.673e+6 
         3164.9        8.712e+6 
         3165.2        8.737e+6 
         3165.5        8.755e+6 
         3165.8         8.77e+6 
         3166.1        8.777e+6 
         3166.4        8.768e+6 
         3166.7        8.738e+6 
           3167        8.683e+6 
         3167.3        8.613e+6 
         3167.6        8.543e+6 
         3167.9        8.496e+6 
         3168.2        8.489e+6 
         3168.5        8.537e+6 
         3168.8         8.64e+6 
         3169.1        8.787e+6 
         3169.4        8.964e+6 
         3169.7        9.153e+6 
           3170        9.343e+6 
         3170.3        9.524e+6 
         3170.6        9.692e+6 
         3170.9        9.841e+6 
         3171.2        9.969e+6 
         3171.5        1.007e+7 
         3171.8        1.015e+7 
         3172.1        1.019e+7 
         3172.4        1.021e+7 
         3172.7         1.02e+7 
           3173        1.018e+7 
         3173.3        1.014e+7 
         3173.6        1.009e+7 
         3173.9        1.005e+7 
         3174.2        1.003e+7 
         3174.5        1.002e+7 
         3174.8        1.003e+7 
         3175.1        1.005e+7 
         3175.4        1.008e+7 
         3175.7        1.009e+7 
           3176        1.006e+7 
         3176.3        9.971e+6 
         3176.6        9.817e+6 
         3176.9        9.593e+6 
         3177.2         9.31e+6 
         3177.5        8.985e+6 
         3177.8         8.64e+6 
         3178.1        8.297e+6 
