# Granada HRES Library
# atmosphere = Phoenix  (atmosphere model used)
# feh = -10  (value for [Fe/H] for the model.)
# logg = 0.5 log(cm/s2) (value for Log(G) for the model.)
# teff = 4500 K (value for the effective temperature for the model. Temperatures are given in K)
#
# column 1: WAVELENGTH (ANGSTROM), Wavelength in Angstrom
# column 2: FLUX (ERG/CM2/S/A), Flux in erg/cm2/s/A
         3000.2            6675 
         3000.5            5849 
         3000.8            5256 
         3001.1            4910 
         3001.4            4757 
         3001.7            4715 
           3002            4765 
         3002.3            5026 
         3002.6            5771 
         3002.9            7364 
         3003.2           10130 
         3003.5           14220 
         3003.8           19510 
         3004.1           25530 
         3004.4           31580 
         3004.7           36900 
           3005           40820 
         3005.3           42920 
         3005.6           42990 
         3005.9           41040 
         3006.2           37290 
         3006.5           32190 
         3006.8           26450 
         3007.1           20860 
         3007.4           16210 
         3007.7           13060 
           3008           11670 
         3008.3           11970 
         3008.6           13700 
         3008.9           16550 
         3009.2           20150 
         3009.5           24120 
         3009.8           27950 
         3010.1           31040 
         3010.4           32840 
         3010.7           33190 
           3011           32440 
         3011.3           31440 
         3011.6           31190 
         3011.9           32380 
         3012.2           35020 
         3012.5           38370 
         3012.8           41310 
         3013.1           42900 
         3013.4           42800 
         3013.7           41300 
           3014           39070 
         3014.3           36770 
         3014.6           34720 
         3014.9           32960 
         3015.2           31360 
         3015.5           29800 
         3015.8           28280 
         3016.1           26810 
         3016.4           25320 
         3016.7           23690 
           3017           21840 
         3017.3           19850 
         3017.6           17840 
         3017.9           15920 
         3018.2           14050 
         3018.5           12130 
         3018.8           10130 
         3019.1            8069 
         3019.4            6127 
         3019.7            4460 
           3020            3195 
         3020.3            2416 
         3020.6            2185 
         3020.9            2570 
         3021.2            3628 
         3021.5            5370 
         3021.8            7696 
         3022.1           10360 
         3022.4           12950 
         3022.7           15050 
           3023           16330 
         3023.3           16740 
         3023.6           16510 
         3023.9           15990 
         3024.2           15460 
         3024.5           14990 
         3024.8           14490 
         3025.1           13950 
         3025.4           13590 
         3025.7           13880 
           3026           15230 
         3026.3           17880 
         3026.6           21670 
         3026.9           26310 
         3027.2           31480 
         3027.5           36990 
         3027.8           42580 
         3028.1           47690 
         3028.4           51610 
         3028.7           53540 
           3029           53090 
         3029.3           50300 
         3029.6           45700 
         3029.9           40010 
         3030.2           34180 
         3030.5           29320 
         3030.8           26570 
         3031.1           26850 
         3031.4           30480 
         3031.7           36880 
           3032           44610 
         3032.3           51720 
         3032.6           56440 
         3032.9           57790 
         3033.2           55850 
         3033.5           51650 
         3033.8           46760 
         3034.1           42690 
         3034.4           40250 
         3034.7           39380 
           3035           39240 
         3035.3           38690 
         3035.6           36820 
         3035.9           33320 
         3036.2           28480 
         3036.5           23020 
         3036.8           17850 
         3037.1           13730 
         3037.4           11160 
         3037.7           10290 
           3038           11010 
         3038.3           13080 
         3038.6           16220 
         3038.9           20090 
         3039.2           24230 
         3039.5           27960 
         3039.8           30590 
         3040.1           31590 
         3040.4           30860 
         3040.7           28690 
           3041           25650 
         3041.3           22390 
         3041.6           19600 
         3041.9           17820 
         3042.2           17380 
         3042.5           18380 
         3042.8           20710 
         3043.1           24220 
         3043.4           28770 
         3043.7           34050 
           3044           39480 
         3044.3           44240 
         3044.6           47530 
         3044.9           48920 
         3045.2           48440 
         3045.5           46330 
         3045.8           42820 
         3046.1           38040 
         3046.4           32240 
         3046.7           25980 
           3047           20170 
         3047.3           15730 
         3047.6           13430 
         3047.9           13540 
         3048.2           15890 
         3048.5           19830 
         3048.8           24350 
         3049.1           28290 
         3049.4           30650 
         3049.7           31010 
           3050           29780 
         3050.3           28140 
         3050.6           27510 
         3050.9           28950 
         3051.2           32710 
         3051.5           38010 
         3051.8           43420 
         3052.1           47370 
         3052.4           48660 
         3052.7           46920 
           3053           42670 
         3053.3           37070 
         3053.6           31560 
         3053.9           27370 
         3054.2           25370 
         3054.5           25980 
         3054.8           29110 
         3055.1           34000 
         3055.4           39280 
         3055.7           43250 
           3056           44470 
         3056.3           42330 
         3056.6           37300 
         3056.9           30620 
         3057.2           23740 
         3057.5           17790 
         3057.8           13310 
         3058.1           10340 
         3058.4            8732 
         3058.7            8442 
           3059            9629 
         3059.3           12560 
         3059.6           17390 
         3059.9           23910 
         3060.2           31490 
         3060.5           39180 
         3060.8           46080 
         3061.1           51560 
         3061.4           55510 
         3061.7           58130 
           3062           59620 
         3062.3           59820 
         3062.6           58240 
         3062.9           54430 
         3063.2           48530 
         3063.5           41520 
         3063.8           34970 
         3064.1           30360 
         3064.4           28460 
         3064.7           29030 
           3065           30930 
         3065.3           32710 
         3065.6           33230 
         3065.9           32140 
         3066.2           29920 
         3066.5           27640 
         3066.8           26460 
         3067.1           27300 
         3067.4           30630 
         3067.7           36380 
           3068           43910 
         3068.3           51920 
         3068.6           58810 
         3068.9           63020 
         3069.2           63690 
         3069.5           61120 
         3069.8           56710 
         3070.1           52370 
         3070.4           49590 
         3070.7           48880 
           3071           49560 
         3071.3           50360 
         3071.6           50170 
         3071.9           48680 
         3072.2           46360 
         3072.5           44020 
         3072.8           42280 
         3073.1           41350 
         3073.4           41020 
         3073.7           40950 
           3074           40850 
         3074.3           40670 
         3074.6           40730 
         3074.9           41820 
         3075.2           45010 
         3075.5           51180 
         3075.8           60210 
         3076.1           70600 
         3076.4           79790 
         3076.7           85050 
           3077           84800 
         3077.3           79310 
         3077.6           70570 
         3077.9           61490 
         3078.2           54820 
         3078.5           52140 
         3078.8           53490 
         3079.1           57430 
         3079.4           61690 
         3079.7           64030 
           3080           63100 
         3080.3           58860 
         3080.6           52620 
         3080.9           46330 
         3081.2           41880 
         3081.5           40340 
         3081.8           41710 
         3082.1           45110 
         3082.4           49270 
         3082.7           53050 
           3083           56000 
         3083.3           58350 
         3083.6           60690 
         3083.9           63370 
         3084.2           66100 
         3084.5           68210 
         3084.8           69090 
         3085.1           68490 
         3085.4           66420 
         3085.7           62990 
           3086           58390 
         3086.3           53100 
         3086.6           47910 
         3086.9           43720 
         3087.2           41190 
         3087.5           40440 
         3087.8           41060 
         3088.1           42250 
         3088.4           43140 
         3088.7           43200 
           3089           42470 
         3089.3           41570 
         3089.6           41160 
         3089.9           41450 
         3090.2           41900 
         3090.5           41570 
         3090.8           39710 
         3091.1           36200 
         3091.4           31570 
         3091.7           26690 
           3092           22420 
         3092.3           19480 
         3092.6           18380 
         3092.9           19290 
         3093.2           22050 
         3093.5           26110 
         3093.8           30640 
         3094.1           34670 
         3094.4           37300 
         3094.7           37980 
           3095           36680 
         3095.3           33990 
         3095.6           30860 
         3095.9           28350 
         3096.2           27300 
         3096.5           28200 
         3096.8           31110 
         3097.1           35580 
         3097.4           40560 
         3097.7           44570 
           3098           46160 
         3098.3           44490 
         3098.6           39760 
         3098.9           33050 
         3099.2           25880 
         3099.5           19600 
         3099.8           14990 
         3100.1           12210 
         3100.4           10940 
         3100.7           10760 
           3101           11470 
         3101.3           16580 
         3101.6           21980 
         3101.9           29440 
         3102.2           38260 
         3102.5           47270 
         3102.8           55320 
         3103.1           61810 
         3103.4           66780 
         3103.7           70390 
           3104           72410 
         3104.3           72130 
         3104.6           68940 
         3104.9           63090 
         3105.2           55950 
         3105.5           49600 
         3105.8           45810 
         3106.1           45310 
         3106.4           47570 
         3106.7           51330 
           3107           55340 
         3107.3           58900 
         3107.6           61830 
         3107.9           64160 
         3108.2           65870 
         3108.5           66770 
         3108.8           66860 
         3109.1           66570 
         3109.4           66810 
         3109.7           68650 
           3110           72830 
         3110.3           79320 
         3110.6           87220 
         3110.9           94990 
         3111.2          100900 
         3111.5          103400 
         3111.8          102000 
         3112.1           96780 
         3112.4           88730 
         3112.7           79630 
           3113           71640 
         3113.3           66850 
         3113.6           66730 
         3113.9           71700 
         3114.2           80970 
         3114.5           92460 
         3114.8          103400 
         3115.1          110500 
         3115.4          111900 
         3115.7          106600 
           3116           95270 
         3116.3           80130 
         3116.6           64190 
         3116.9           50300 
         3117.2           40340 
         3117.5           34820 
         3117.8           33130 
         3118.1           33880 
         3118.4           35700 
         3118.7           37530 
           3119           39010 
         3119.3           40420 
         3119.6           42330 
         3119.9           45040 
         3120.2           48120 
         3120.5           50490 
         3120.8           50930 
         3121.1           48880 
         3121.4           44770 
         3121.7           39960 
           3122           36120 
         3122.3           34670 
         3122.6           36320 
         3122.9           40960 
         3123.2           47630 
         3123.5           54660 
         3123.8           60170 
         3124.1           62830 
         3124.4           62460 
         3124.7           60100 
           3125           57440 
         3125.3           56140 
         3125.6           57010 
         3125.9           59930 
         3126.2           63710 
         3126.5           66570 
         3126.8           66750 
         3127.1           63330 
         3127.4           56790 
         3127.7           48990 
           3128           42400 
         3128.3           38980 
         3128.6           39380 
         3128.9           42700 
         3129.2           46970 
         3129.5           50070 
         3129.8           50670 
         3130.1           48710 
         3130.4           45130 
         3130.7           41230 
           3131           38000 
         3131.3           35770 
         3131.6           34320 
         3131.9           33160 
         3132.2           31850 
         3132.5           30170 
         3132.8           28320 
         3133.1           26950 
         3133.4           27010 
         3133.7           29460 
           3134           34700 
         3134.3           42110 
         3134.6           50030 
         3134.9           56370 
         3135.2           59570 
         3135.5           59390 
         3135.8           57060 
         3136.1           54540 
         3136.4           53520 
         3136.7           54750 
           3137           57970 
         3137.3           62270 
         3137.6           66540 
         3137.9           69810 
         3138.2           71440 
         3138.5           71160 
         3138.8           69080 
         3139.1           65790 
         3139.4           62170 
         3139.7           59370 
           3140           58300 
         3140.3           59180 
         3140.6           61340 
         3140.9           63620 
         3141.2           65070 
         3141.5           65440 
         3141.8           65060 
         3142.1           64190 
         3142.4           62520 
         3142.7           59270 
           3143           53890 
         3143.3           46770 
         3143.6           39270 
         3143.9           33210 
         3144.2           30220 
         3144.5           31220 
         3144.8           36120 
         3145.1           43810 
         3145.4           52210 
         3145.7           58870 
           3146           61790 
         3146.3           60360 
         3146.6           55660 
         3146.9           50000 
         3147.2           46020 
         3147.5           45740 
         3147.8           50060 
         3148.1           58660 
         3148.4           70120 
         3148.7           82390 
           3149           93420 
         3149.3          101800 
         3149.6          107000 
         3149.9          109200 
         3150.2          108500 
         3150.5          105300 
         3150.8           99720 
         3151.1           92380 
         3151.4           84110 
         3151.7           76150 
           3152           69700 
         3152.3           65520 
         3152.6           63490 
         3152.9           62580 
         3153.2           61230 
         3153.5           58250 
         3153.8           53410 
         3154.1           47680 
         3154.4           42430 
         3154.7           38720 
           3155           36750 
         3155.3           35920 
         3155.6           35430 
         3155.9           34670 
         3156.2           33480 
         3156.5           32060 
         3156.8           30790 
         3157.1           30090 
         3157.4           30260 
         3157.7           31460 
           3158           33640 
         3158.3           36590 
         3158.6           39850 
         3158.9           42890 
         3159.2           45120 
         3159.5           46140 
         3159.8           45750 
         3160.1           44100 
         3160.4           41660 
         3160.7           39180 
           3161           37630 
         3161.3           37870 
         3161.6           40440 
         3161.9           45240 
         3162.2           51370 
         3162.5           57320 
         3162.8           61370 
         3163.1           62260 
         3163.4           59730 
         3163.7           54620 
           3164           48590 
         3164.3           43450 
         3164.6           40540 
         3164.9           40550 
         3165.2           43610 
         3165.5           49530 
         3165.8           57890 
         3166.1           67910 
         3166.4           78180 
         3166.7           86820 
           3167           91780 
         3167.3           91770 
         3167.6           86750 
         3167.9           78130 
         3168.2           68300 
         3168.5           59830 
         3168.8           54740 
         3169.1           54100 
         3169.4           58220 
         3169.7           66950 
           3170           79970 
         3170.3           96570 
         3170.6          115300 
         3170.9          133900 
         3171.2          149600 
         3171.5          159600 
         3171.8          161900 
         3172.1          156900 
         3172.4          146100 
         3172.7          133100 
           3173          121900 
         3173.3          115500 
         3173.6          114400 
         3173.9          117300 
         3174.2          121900 
         3174.5          126200 
         3174.8          129700 
         3175.1          132800 
         3175.4          135900 
         3175.7          138600 
           3176          139900 
         3176.3          138300 
         3176.6          133200 
         3176.9          125100 
         3177.2          115700 
         3177.5          107000 
         3177.8          100200 
         3178.1           95340 
