# Granada HRES Library
# atmosphere = Spectrum  (atmosphere model used)
# feh = 3  (value for [Fe/H] for the model.)
# logg = 0.5 log(cm/s2) (value for Log(G) for the model.)
# teff = 4750 K (value for the effective temperature for the model. Temperatures are given in K)
#
# column 1: WAVELENGTH (ANGSTROM), Wavelength in Angstrom
# column 2: FLUX (ERG/CM2/S/A), Flux in erg/cm2/s/A
         3000.2            1433 
         3000.5            1526 
         3000.8            1662 
         3001.1            1857 
         3001.4            2132 
         3001.7            2537 
           3002            3133 
         3002.3            4024 
         3002.6            5331 
         3002.9            7193 
         3003.2            9732 
         3003.5           13010 
         3003.8           16970 
         3004.1           21440 
         3004.4           26070 
         3004.7           30400 
           3005           33890 
         3005.3           36060 
         3005.6           36550 
         3005.9           35260 
         3006.2           32360 
         3006.5           28240 
         3006.8           23500 
         3007.1           18740 
         3007.4           14510 
         3007.7           11230 
           3008            9114 
         3008.3            8262 
         3008.6            8652 
         3008.9           10180 
         3009.2           12670 
         3009.5           15860 
         3009.8           19370 
         3010.1           22820 
         3010.4           25800 
         3010.7           28030 
           3011           29400 
         3011.3           30020 
         3011.6           30160 
         3011.9           30130 
         3012.2           30200 
         3012.5           30480 
         3012.8           30930 
         3013.1           31370 
         3013.4           31580 
         3013.7           31390 
           3014           30660 
         3014.3           29370 
         3014.6           27560 
         3014.9           25340 
         3015.2           22840 
         3015.5           20240 
         3015.8           17660 
         3016.1           15200 
         3016.4           12920 
         3016.7           10860 
           3017            9041 
         3017.3            7457 
         3017.6            6096 
         3017.9            4937 
         3018.2            3972 
         3018.5            3161 
         3018.8            2495 
         3019.1            1943 
         3019.4            1499 
         3019.7            1154 
           3020           911.3 
         3020.3           772.8 
         3020.6           744.2 
         3020.9           833.8 
         3021.2            1041 
         3021.5            1356 
         3021.8            1764 
         3022.1            2237 
         3022.4            2738 
         3022.7            3228 
           3023            3672 
         3023.3            4041 
         3023.6            4322 
         3023.9            4512 
         3024.2            4633 
         3024.5            4746 
         3024.8            4950 
         3025.1            5379 
         3025.4            6202 
         3025.7            7644 
           3026            9903 
         3026.3           13130 
         3026.6           17380 
         3026.9           22550 
         3027.2           28370 
         3027.5           34420 
         3027.8           40150 
         3028.1           45000 
         3028.4           48530 
         3028.7           50500 
           3029           50930 
         3029.3           50090 
         3029.6           48440 
         3029.9           46490 
         3030.2           44800 
         3030.5           43890 
         3030.8           44310 
         3031.1           46510 
         3031.4           50780 
         3031.7           57120 
           3032           65140 
         3032.3           74090 
         3032.6           82970 
         3032.9           90750 
         3033.2           96510 
         3033.5           99640 
         3033.8           99890 
         3034.1           97300 
         3034.4           92190 
         3034.7           85000 
           3035           76230 
         3035.3           66420 
         3035.6           56110 
         3035.9           45900 
         3036.2           36340 
         3036.5           27960 
         3036.8           21190 
         3037.1           16320 
         3037.4           13420 
         3037.7           12410 
           3038           13090 
         3038.3           15100 
         3038.6           18020 
         3038.9           21380 
         3039.2           24710 
         3039.5           27650 
         3039.8           29870 
         3040.1           31230 
         3040.4           31730 
         3040.7           31500 
           3041           30830 
         3041.3           30070 
         3041.6           29660 
         3041.9           29980 
         3042.2           31260 
         3042.5           33520 
         3042.8           36500 
         3043.1           39770 
         3043.4           42760 
         3043.7           44950 
           3044           45960 
         3044.3           45590 
         3044.6           43880 
         3044.9           40970 
         3045.2           37140 
         3045.5           32720 
         3045.8           28020 
         3046.1           23350 
         3046.4           19010 
         3046.7           15280 
           3047           12370 
         3047.3           10470 
         3047.6            9676 
         3047.9            9957 
         3048.2           11180 
         3048.5           13090 
         3048.8           15460 
         3049.1           18000 
         3049.4           20610 
         3049.7           23400 
           3050           26710 
         3050.3           30990 
         3050.6           36650 
         3050.9           43850 
         3051.2           52260 
         3051.5           61030 
         3051.8           68940 
         3052.1           74670 
         3052.4           77150 
         3052.7           75930 
           3053           71320 
         3053.3           64330 
         3053.6           56310 
         3053.9           48670 
         3054.2           42430 
         3054.5           38040 
         3054.8           35400 
         3055.1           33930 
         3055.4           32880 
         3055.7           31550 
           3056           29480 
         3056.3           26550 
         3056.6           22900 
         3056.9           18930 
         3057.2           15040 
         3057.5           11600 
         3057.8            8891 
         3058.1            7053 
         3058.4            6178 
         3058.7            6388 
           3059            7742 
         3059.3           10380 
         3059.6           14420 
         3059.9           19930 
         3060.2           26860 
         3060.5           34960 
         3060.8           43780 
         3061.1           52730 
         3061.4           61040 
         3061.7           67990 
           3062           72890 
         3062.3           75280 
         3062.6           75100 
         3062.9           72640 
         3063.2           68550 
         3063.5           63690 
         3063.8           58890 
         3064.1           54750 
         3064.4           51500 
         3064.7           49010 
           3065           46820 
         3065.3           44540 
         3065.6           41860 
         3065.9           38870 
         3066.2           36070 
         3066.5           34290 
         3066.8           34630 
         3067.1           38230 
         3067.4           45700 
         3067.7           57380 
           3068           72830 
         3068.3           90940 
         3068.6          110100 
         3068.9          128300 
         3069.2          143600 
         3069.5          154800 
         3069.8          161200 
         3070.1          162600 
         3070.4          159600 
         3070.7          153000 
           3071          143700 
         3071.3          132500 
         3071.6          120400 
         3071.9          108500 
         3072.2           97900 
         3072.5           89340 
         3072.8           83230 
         3073.1           79280 
         3073.4           76800 
         3073.7           74880 
           3074           72710 
         3074.3           70040 
         3074.6           67160 
         3074.9           64880 
         3075.2           64290 
         3075.5           66150 
         3075.8           70750 
         3076.1           77500 
         3076.4           85250 
         3076.7           92390 
           3077           97500 
         3077.3           99750 
         3077.6           99110 
         3077.9           96440 
         3078.2           93110 
         3078.5           90570 
         3078.8           89930 
         3079.1           91640 
         3079.4           95240 
         3079.7           99770 
           3080          104000 
         3080.3          106700 
         3080.6          107200 
         3080.9          105300 
         3081.2          101400 
         3081.5           96120 
         3081.8           90640 
         3082.1           85980 
         3082.4           83140 
         3082.7           83190 
           3083           87170 
         3083.3           96040 
         3083.6          110400 
         3083.9          130300 
         3084.2          154800 
         3084.5          181900 
         3084.8          208400 
         3085.1          230800 
         3085.4          245500 
         3085.7          250000 
           3086          243400 
         3086.3          226700 
         3086.6          202600 
         3086.9          175000 
         3087.2          147600 
         3087.5          123700 
         3087.8          105200 
         3088.1           92650 
         3088.4           85460 
         3088.7           82200 
           3089           81210 
         3089.3           80990 
         3089.6           80390 
         3089.9           78930 
         3090.2           76500 
         3090.5           73290 
         3090.8           69610 
         3091.1           65820 
         3091.4           62220 
         3091.7           59140 
           3092           56860 
         3092.3           55810 
         3092.6           56510 
         3092.9           59490 
         3093.2           65020 
         3093.5           72900 
         3093.8           82340 
         3094.1           92060 
         3094.4          100500 
         3094.7          106400 
           3095          108900 
         3095.3          108000 
         3095.6          104500 
         3095.9           99740 
         3096.2           95000 
         3096.5           91420 
         3096.8           89390 
         3097.1           88580 
         3097.4           88010 
         3097.7           86430 
           3098           82730 
         3098.3           76330 
         3098.6           67420 
         3098.9           56790 
         3099.2           45620 
         3099.5           35090 
         3099.8           26240 
         3100.1           19650 
         3100.4           15690 
         3100.7           14480 
           3101           16110 
         3101.3           20600 
         3101.6           27960 
         3101.9           38010 
         3102.2           50350 
         3102.5           64240 
         3102.8           78680 
         3103.1           92510 
         3103.4          104800 
         3103.7          114500 
           3104          121300 
         3104.3          125500 
         3104.6          127900 
         3104.9          129600 
         3105.2          132300 
         3105.5          137500 
         3105.8          146200 
         3106.1          158900 
         3106.4          175200 
         3106.7          193700 
           3107          213100 
         3107.3          231500 
         3107.6          247500 
         3107.9          259500 
         3108.2          266600 
         3108.5          268200 
         3108.8          264300 
         3109.1          255600 
         3109.4          243900 
         3109.7          231500 
           3110          221500 
         3110.3          216300 
         3110.6          217500 
         3110.9          224800 
         3111.2          236300 
         3111.5          248700 
         3111.8          258600 
         3112.1          262800 
         3112.4          260000 
         3112.7          250300 
           3113          235600 
         3113.3          218800 
         3113.6          203100 
         3113.9          190800 
         3114.2          183200 
         3114.5          179900 
         3114.8          179700 
         3115.1          180300 
         3115.4          180000 
         3115.7          177300 
           3116          171600 
         3116.3          163100 
         3116.6          152500 
         3116.9          140900 
         3117.2          129400 
         3117.5          118700 
         3117.8          109700 
         3118.1          102700 
         3118.4           97940 
         3118.7           95540 
           3119           95370 
         3119.3           97280 
         3119.6          101100 
         3119.9          106500 
         3120.2          112800 
         3120.5          119400 
         3120.8          124900 
         3121.1          128500 
         3121.4          129800 
         3121.7          129000 
           3122          127200 
         3122.3          125700 
         3122.6          126000 
         3122.9          128800 
         3123.2          133900 
         3123.5          140200 
         3123.8          145900 
         3124.1          149400 
         3124.4          149800 
         3124.7          147400 
           3125          143500 
         3125.3          140800 
         3125.6          141300 
         3125.9          146600 
         3126.2          156400 
         3126.5          169200 
         3126.8          182800 
         3127.1          194500 
         3127.4          202200 
         3127.7          204700 
           3128          202100 
         3128.3          195300 
         3128.6          185800 
         3128.9          175300 
         3129.2          165000 
         3129.5          155700 
         3129.8          147800 
         3130.1          141200 
         3130.4          135900 
         3130.7          131500 
           3131          127500 
         3131.3          123400 
         3131.6          118600 
         3131.9          112600 
         3132.2          105300 
         3132.5           97360 
         3132.8           89630 
         3133.1           83440 
         3133.4           80310 
         3133.7           81390 
           3134           87420 
         3134.3           98240 
         3134.6          112700 
         3134.9          129000 
         3135.2          145100 
         3135.5          159100 
         3135.8          169800 
         3136.1          176900 
         3136.4          181000 
         3136.7          182900 
           3137          183800 
         3137.3          184700 
         3137.6          186100 
         3137.9          188500 
         3138.2          192300 
         3138.5          197400 
         3138.8          204100 
         3139.1          212200 
         3139.4          221800 
         3139.7          232700 
           3140          244100 
         3140.3          255300 
         3140.6          264600 
         3140.9          270100 
         3141.2          270000 
         3141.5          263200 
         3141.8          249400 
         3142.1          229500 
         3142.4          205100 
         3142.7          178300 
           3143          151500 
         3143.3          126600 
         3143.6          105300 
         3143.9           88770 
         3144.2           77480 
         3144.5           71390 
         3144.8           69980 
         3145.1           72190 
         3145.4           76840 
         3145.7           82710 
           3146           88900 
         3146.3           95270 
         3146.6          102300 
         3146.9          111100 
         3147.2          122700 
         3147.5          137900 
         3147.8          156800 
         3148.1          178500 
         3148.4          201300 
         3148.7          223400 
           3149          243000 
         3149.3          258800 
         3149.6          270500 
         3149.9          277800 
         3150.2          281000 
         3150.5          280400 
         3150.8          276400 
         3151.1          269800 
         3151.4          261400 
         3151.7          252500 
           3152          244500 
         3152.3          238300 
         3152.6          234100 
         3152.9          231700 
         3153.2          230100 
         3153.5          228600 
         3153.8          226200 
         3154.1          222800 
         3154.4          218400 
         3154.7          213300 
           3155          207700 
         3155.3          201600 
         3155.6          194600 
         3155.9          186500 
         3156.2          176700 
         3156.5          165200 
         3156.8          152100 
         3157.1          138200 
         3157.4          124700 
         3157.7          112600 
           3158          102800 
         3158.3           95720 
         3158.6           91230 
         3158.9           88600 
         3159.2           86990 
         3159.5           85290 
         3159.8           82710 
         3160.1           78770 
         3160.4           73850 
         3160.7           68760 
           3161           64750 
         3161.3           63030 
         3161.6           64650 
         3161.9           70210 
         3162.2           79460 
         3162.5           91530 
         3162.8          105000 
         3163.1          118300 
         3163.4          129600 
         3163.7          138000 
           3164          143200 
         3164.3          145700 
         3164.6          146900 
         3164.9          148200 
         3165.2          150900 
         3165.5          155500 
         3165.8          161900 
         3166.1          168800 
         3166.4          174700 
         3166.7          177900 
           3167          177100 
         3167.3          172100 
         3167.6          163800 
         3167.9          154500 
         3168.2          146900 
         3168.5          143700 
         3168.8          146800 
         3169.1          156900 
         3169.4          172800 
         3169.7          192900 
           3170          214800 
         3170.3          236400 
         3170.6          256300 
         3170.9          274000 
         3171.2          289700 
         3171.5          303600 
         3171.8          315900 
         3172.1          326200 
         3172.4          333700 
         3172.7          337500 
           3173          337300 
         3173.3          333600 
         3173.6          327300 
         3173.9          320400 
         3174.2          315000 
         3174.5          313200 
         3174.8          316200 
         3175.1          324400 
         3175.4          336600 
         3175.7          350000 
           3176          361100 
         3176.3          366100 
         3176.6          362200 
         3176.9          348400 
         3177.2          325700 
         3177.5          296400 
         3177.8          264100 
         3178.1          231800 
