# Granada HRES Library
# atmosphere = Phoenix  (atmosphere model used)
# feh = -10  (value for [Fe/H] for the model.)
# logg = 3.5 log(cm/s2) (value for Log(G) for the model.)
# teff = 4500 K (value for the effective temperature for the model. Temperatures are given in K)
#
# column 1: WAVELENGTH (ANGSTROM), Wavelength in Angstrom
# column 2: FLUX (ERG/CM2/S/A), Flux in erg/cm2/s/A
         3000.2           21160 
         3000.5           19990 
         3000.8           19080 
         3001.1           18460 
         3001.4           18010 
         3001.7           17580 
           3002           17130 
         3002.3           16980 
         3002.6           17730 
         3002.9           20130 
         3003.2           24680 
         3003.5           31500 
         3003.8           40180 
         3004.1           49900 
         3004.4           59730 
         3004.7           68750 
           3005           76120 
         3005.3           81070 
         3005.6           82770 
         3005.9           80620 
         3006.2           74580 
         3006.5           65420 
         3006.8           54690 
         3007.1           44200 
         3007.4           35500 
         3007.7           29520 
           3008           26490 
         3008.3           26160 
         3008.6           28100 
         3008.9           31960 
         3009.2           37430 
         3009.5           44170 
         3009.8           51440 
         3010.1           58100 
         3010.4           62860 
         3010.7           64920 
           3011           64470 
         3011.3           62820 
         3011.6           61790 
         3011.9           62920 
         3012.2           66550 
         3012.5           71690 
         3012.8           76500 
         3013.1           79230 
         3013.4           79080 
         3013.7           76280 
           3014           71870 
         3014.3           66960 
         3014.6           62380 
         3014.9           58480 
         3015.2           55290 
         3015.5           52680 
         3015.8           50480 
         3016.1           48580 
         3016.4           46740 
         3016.7           44730 
           3017           42380 
         3017.3           39690 
         3017.6           36850 
         3017.9           34080 
         3018.2           31440 
         3018.5           28860 
         3018.8           26220 
         3019.1           23410 
         3019.4           20470 
         3019.7           17520 
           3020           14850 
         3020.3           12800 
         3020.6           11780 
         3020.9           12120 
         3021.2           13920 
         3021.5           16970 
         3021.8           20830 
         3022.1           24850 
         3022.4           28330 
         3022.7           30710 
           3023           31670 
         3023.3           31320 
         3023.6           30120 
         3023.9           28710 
         3024.2           27570 
         3024.5           26830 
         3024.8           26350 
         3025.1           26020 
         3025.4           26080 
         3025.7           27230 
           3026           30340 
         3026.3           36100 
         3026.6           44680 
         3026.9           55800 
         3027.2           68810 
         3027.5           82900 
         3027.8           97000 
         3028.1          109500 
         3028.4          118600 
         3028.7          122400 
           3029          120000 
         3029.3          111800 
         3029.6           99530 
         3029.9           85770 
         3030.2           73230 
         3030.5           64390 
         3030.8           61320 
         3031.1           65590 
         3031.4           77710 
         3031.7           96550 
           3032          118900 
         3032.3          140000 
         3032.6          155200 
         3032.9          161400 
         3033.2          158100 
         3033.5          148100 
         3033.8          135400 
         3034.1          123800 
         3034.4          115300 
         3034.7          109500 
           3035          104600 
         3035.3           98070 
         3035.6           88890 
         3035.9           77180 
         3036.2           64270 
         3036.5           51870 
         3036.8           41420 
         3037.1           33920 
         3037.4           29820 
         3037.7           29020 
           3038           31110 
         3038.3           35370 
         3038.6           41020 
         3038.9           47190 
         3039.2           52920 
         3039.5           57250 
         3039.8           59360 
         3040.1           58930 
         3040.4           56220 
         3040.7           51960 
           3041           47160 
         3041.3           42850 
         3041.6           40060 
         3041.9           39710 
         3042.2           42390 
         3042.5           48160 
         3042.8           56530 
         3043.1           66540 
         3043.4           76990 
         3043.7           86530 
           3044           93780 
         3044.3           97620 
         3044.6           97550 
         3044.9           93850 
         3045.2           87500 
         3045.5           79610 
         3045.8           71030 
         3046.1           62150 
         3046.4           53240 
         3046.7           44750 
           3047           37420 
         3047.3           32090 
         3047.6           29490 
         3047.9           29910 
         3048.2           33140 
         3048.5           38450 
         3048.8           44680 
         3049.1           50400 
         3049.4           54330 
         3049.7           55850 
           3050           55440 
         3050.3           54640 
         3050.6           55530 
         3050.9           59810 
         3051.2           68040 
         3051.5           79230 
         3051.8           90960 
         3052.1          100200 
         3052.4          104100 
         3052.7          101300 
           3053           92580 
         3053.3           80230 
         3053.6           67490 
         3053.9           57330 
         3054.2           51650 
         3054.5           51070 
         3054.8           54870 
         3055.1           61280 
         3055.4           67880 
         3055.7           72210 
           3056           72560 
         3056.3           68540 
         3056.6           61080 
         3056.9           51970 
         3057.2           43090 
         3057.5           35720 
         3057.8           30380 
         3058.1           26960 
         3058.4           25170 
         3058.7           24960 
           3059           26640 
         3059.3           30730 
         3059.6           37630 
         3059.9           47330 
         3060.2           59330 
         3060.5           72790 
         3060.8           86810 
         3061.1          100700 
         3061.4          113900 
         3061.7          125600 
           3062          134600 
         3062.3          138800 
         3062.6          136000 
         3062.9          125300 
         3063.2          108100 
         3063.5           88000 
         3063.8           69280 
         3064.1           55530 
         3064.4           48280 
         3064.7           46880 
           3065           49000 
         3065.3           51710 
         3065.6           52630 
         3065.9           50680 
         3066.2           46270 
         3066.5           40880 
         3066.8           36220 
         3067.1           33650 
         3067.4           33870 
         3067.7           37020 
           3068           42770 
         3068.3           50320 
         3068.6           58490 
         3068.9           66010 
         3069.2           72080 
         3069.5           77040 
         3069.8           82610 
         3070.1           91280 
         3070.4          104800 
         3070.7          123000 
           3071          142600 
         3071.3          159300 
         3071.6          169300 
         3071.9          171700 
         3072.2          168300 
         3072.5          162400 
         3072.8          156300 
         3073.1          151000 
         3073.4          146100 
         3073.7          140900 
           3074          134800 
         3074.3          127900 
         3074.6          121000 
         3074.9          115500 
         3075.2          113800 
         3075.5          118000 
         3075.8          129200 
         3076.1          145700 
         3076.4          163400 
         3076.7          177400 
           3077          183600 
         3077.3          181100 
         3077.6          171600 
         3077.9          159000 
         3078.2          147700 
         3078.5          140100 
         3078.8          136500 
         3079.1          134700 
         3079.4          131600 
         3079.7          124800 
           3080          113800 
         3080.3           99430 
         3080.6           83780 
         3080.9           69130 
         3081.2           57390 
         3081.5           49780 
         3081.8           46560 
         3082.1           47210 
         3082.4           50730 
         3082.7           56240 
           3083           63500 
         3083.3           72920 
         3083.6           84920 
         3083.9           99240 
         3084.2          114700 
         3084.5          129700 
         3084.8          142700 
         3085.1          152700 
         3085.4          158400 
         3085.7          158400 
           3086          152000 
         3086.3          140300 
         3086.6          126400 
         3086.9          114500 
         3087.2          108200 
         3087.5          108800 
         3087.8          115100 
         3088.1          123100 
         3088.4          128500 
         3088.7          127400 
           3089          118600 
         3089.3          103900 
         3089.6           86770 
         3089.9           70890 
         3090.2           58300 
         3090.5           49210 
         3090.8           42700 
         3091.1           37620 
         3091.4           33260 
         3091.7           29490 
           3092           26630 
         3092.3           25270 
         3092.6           26000 
         3092.9           29110 
         3093.2           34330 
         3093.5           40830 
         3093.8           47430 
         3094.1           52990 
         3094.4           56690 
         3094.7           58140 
           3095           57340 
         3095.3           54680 
         3095.6           50900 
         3095.9           47120 
         3096.2           44650 
         3096.5           44690 
         3096.8           47710 
         3097.1           53100 
         3097.4           59120 
         3097.7           63510 
           3098           64400 
         3098.3           61150 
         3098.6           54540 
         3098.9           46260 
         3099.2           38220 
         3099.5           31820 
         3099.8           27750 
         3100.1           25920 
         3100.4           25790 
         3100.7           26690 
           3101           28290 
         3101.3           34680 
         3101.6           41040 
         3101.9           50450 
         3102.2           62990 
         3102.5           78220 
         3102.8           95320 
         3103.1          113200 
         3103.4          130300 
         3103.7          144400 
           3104          152800 
         3104.3          153200 
         3104.6          145000 
         3104.9          130500 
         3105.2          113900 
         3105.5          100400 
         3105.8           93220 
         3106.1           93350 
         3106.4           99070 
         3106.7          107400 
           3107          115100 
         3107.3          120200 
         3107.6          121800 
         3107.9          120000 
         3108.2          116200 
         3108.5          113000 
         3108.8          113400 
         3109.1          120200 
         3109.4          135100 
         3109.7          157200 
           3110          184200 
         3110.3          211900 
         3110.6          236300 
         3110.9          254800 
         3111.2          266000 
         3111.5          270400 
         3111.8          268700 
         3112.1          261500 
         3112.4          249300 
         3112.7          234400 
           3113          221200 
         3113.3          215800 
         3113.6          224800 
         3113.9          251600 
         3114.2          294200 
         3114.5          344300 
         3114.8          389000 
         3115.1          414800 
         3115.4          413000 
         3115.7          382300 
           3116          329300 
         3116.3          266300 
         3116.6          206000 
         3116.9          158400 
         3117.2          127600 
         3117.5          113000 
         3117.8          109700 
         3118.1          112400 
         3118.4          116500 
         3118.7          119900 
           3119          122900 
         3119.3          127600 
         3119.6          136200 
         3119.9          148600 
         3120.2          161800 
         3120.5          170300 
         3120.8          169400 
         3121.1          157300 
         3121.4          136500 
         3121.7          112900 
           3122           92930 
         3122.3           81820 
         3122.6           81980 
         3122.9           92970 
         3123.2          111800 
         3123.5          133300 
         3123.8          152000 
         3124.1          163300 
         3124.4          165900 
         3124.7          162100 
           3125          157400 
         3125.3          157600 
         3125.6          166700 
         3125.9          185200 
         3126.2          209300 
         3126.5          231400 
         3126.8          243000 
         3127.1          238200 
         3127.4          217200 
         3127.7          186000 
           3128          154200 
         3128.3          130200 
         3128.6          117700 
         3128.9          115500 
         3129.2          119300 
         3129.5          124000 
         3129.8          126300 
         3130.1          125300 
         3130.4          121800 
         3130.7          117000 
           3131          112000 
         3131.3          106900 
         3131.6          101600 
         3131.9           95670 
         3132.2           88920 
         3132.5           81630 
         3132.8           74750 
         3133.1           70130 
         3133.4           70300 
         3133.7           77750 
           3134           93580 
         3134.3          116200 
         3134.6          140900 
         3134.9          161700 
         3135.2          173200 
         3135.5          174000 
         3135.8          166800 
         3136.1          157600 
         3136.4          152600 
         3136.7          155800 
           3137          168100 
         3137.3          187200 
         3137.6          208800 
         3137.9          228500 
         3138.2          242600 
         3138.5          249800 
         3138.8          250000 
         3139.1          244500 
         3139.4          234800 
         3139.7          223000 
           3140          211400 
         3140.3          202300 
         3140.6          196100 
         3140.9          192300 
         3141.2          189100 
         3141.5          185600 
         3141.8          181600 
         3142.1          176700 
         3142.4          169500 
         3142.7          158300 
           3143          142200 
         3143.3          122600 
         3143.6          103300 
         3143.9           89090 
         3144.2           83650 
         3144.5           89180 
         3144.8          105300 
         3145.1          129000 
         3145.4          153900 
         3145.7          172900 
           3146          180100 
         3146.3          173900 
         3146.6          158600 
         3146.9          142600 
         3147.2          134600 
         3147.5          141000 
         3147.8          163500 
         3148.1          198800 
         3148.4          238900 
         3148.7          274000 
           3149          295600 
         3149.3          299400 
         3149.6          287200 
         3149.9          264600 
         3150.2          238800 
         3150.5          215400 
         3150.8          197600 
         3151.1          186000 
         3151.4          180000 
         3151.7          179000 
           3152          182000 
         3152.3          187900 
         3152.6          194600 
         3152.9          199500 
         3153.2          200700 
         3153.5          198200 
         3153.8          194600 
         3154.1          194000 
         3154.4          199100 
         3154.7          208500 
           3155          217000 
         3155.3          218700 
         3155.6          209500 
         3155.9          189800 
         3156.2          164000 
         3156.5          138300 
         3156.8          117500 
         3157.1          104700 
         3157.4          100100 
         3157.7          102300 
           3158          109000 
         3158.3          117700 
         3158.6          126000 
         3158.9          131900 
         3159.2          134000 
         3159.5          132000 
         3159.8          126600 
         3160.1          119800 
         3160.4          113800 
         3160.7          111200 
           3161          114300 
         3161.3          125000 
         3161.6          144000 
         3161.9          170000 
         3162.2          199700 
         3162.5          226600 
         3162.8          244100 
         3163.1          247200 
         3163.4          235000 
         3163.7          212200 
           3164          186000 
         3164.3          164400 
         3164.6          152200 
         3164.9          151400 
         3165.2          161600 
         3165.5          182400 
         3165.8          213300 
         3166.1          252400 
         3166.4          295500 
         3166.7          334800 
           3167          361100 
         3167.3          367800 
         3167.6          353800 
         3167.9          324600 
         3168.2          290400 
         3168.5          262900 
         3168.8          250200 
         3169.1          254800 
         3169.4          273800 
         3169.7          301600 
           3170          333500 
         3170.3          367300 
         3170.6          403400 
         3170.9          442100 
         3171.2          481500 
         3171.5          516400 
         3171.8          538800 
         3172.1          541900 
         3172.4          524500 
         3172.7          492800 
           3173          459200 
         3173.3          436600 
         3173.6          432300 
         3173.9          445500 
         3174.2          469300 
         3174.5          495800 
         3174.8          520400 
         3175.1          541400 
         3175.4          557800 
         3175.7          567500 
           3176          565300 
         3176.3          547000 
         3176.6          511500 
         3176.9          463800 
         3177.2          414000 
         3177.5          372600 
         3177.8          346600 
         3178.1          334800 
