# Granada HRES Library
# atmosphere = Phoenix  (atmosphere model used)
# feh = -10  (value for [Fe/H] for the model.)
# logg = 0.5 log(cm/s2) (value for Log(G) for the model.)
# teff = 3000 K (value for the effective temperature for the model. Temperatures are given in K)
#
# column 1: WAVELENGTH (ANGSTROM), Wavelength in Angstrom
# column 2: FLUX (ERG/CM2/S/A), Flux in erg/cm2/s/A
         3000.2           8.233 
         3000.5            6.39 
         3000.8           5.189 
         3001.1           4.548 
         3001.4           4.286 
         3001.7           4.213 
           3002           4.223 
         3002.3           4.361 
         3002.6           4.819 
         3002.9           5.855 
         3003.2           7.698 
         3003.5           10.43 
         3003.8           13.96 
         3004.1           17.97 
         3004.4           22.05 
         3004.7           25.73 
           3005            28.6 
         3005.3           30.29 
         3005.6           30.54 
         3005.9           29.25 
         3006.2           26.63 
         3006.5            23.1 
         3006.8           19.26 
         3007.1           15.68 
         3007.4           12.83 
         3007.7           11.06 
           3008           10.51 
         3008.3           11.31 
         3008.6           13.53 
         3008.9            17.3 
         3009.2           22.64 
         3009.5           29.26 
         3009.8           36.33 
         3010.1           42.56 
         3010.4           46.61 
         3010.7           47.71 
           3011           46.06 
         3011.3           42.72 
         3011.6           39.12 
         3011.9            36.4 
         3012.2           34.99 
         3012.5           34.62 
         3012.8           34.72 
         3013.1           34.77 
         3013.4           34.56 
         3013.7            34.1 
           3014           33.47 
         3014.3           32.83 
         3014.6           32.24 
         3014.9           31.81 
         3015.2           31.53 
         3015.5           31.26 
         3015.8           30.74 
         3016.1           29.75 
         3016.4           28.17 
         3016.7           26.03 
           3017           23.53 
         3017.3           20.97 
         3017.6           18.61 
         3017.9           16.55 
         3018.2           14.74 
         3018.5           12.94 
         3018.8           11.03 
         3019.1           8.995 
         3019.4           6.978 
         3019.7           5.162 
           3020           3.714 
         3020.3           2.748 
         3020.6            2.34 
         3020.9           2.543 
         3021.2           3.382 
         3021.5           4.827 
         3021.8           6.761 
         3022.1           8.957 
         3022.4           11.09 
         3022.7           12.78 
           3023           13.75 
         3023.3           13.85 
         3023.6           13.22 
         3023.9           12.14 
         3024.2           10.96 
         3024.5           9.935 
         3024.8           9.175 
         3025.1           8.718 
         3025.4           8.627 
         3025.7           9.006 
           3026            9.92 
         3026.3           11.29 
         3026.6           12.85 
         3026.9           14.29 
         3027.2           15.46 
         3027.5           16.49 
         3027.8           17.81 
         3028.1           19.94 
         3028.4           23.21 
         3028.7           27.51 
           3029           32.19 
         3029.3           36.32 
         3029.6           39.09 
         3029.9           40.17 
         3030.2           39.92 
         3030.5           39.35 
         3030.8           39.69 
         3031.1           41.92 
         3031.4            46.2 
         3031.7           51.68 
           3032           56.65 
         3032.3           59.17 
         3032.6           58.02 
         3032.9           53.25 
         3033.2           46.14 
         3033.5           38.72 
         3033.8           32.85 
         3034.1           29.65 
         3034.4           29.16 
         3034.7           30.55 
           3035           32.46 
         3035.3           33.61 
         3035.6           33.13 
         3035.9           30.84 
         3036.2           27.12 
         3036.5           22.76 
         3036.8           18.75 
         3037.1           16.01 
         3037.4           15.19 
         3037.7           16.51 
           3038           19.71 
         3038.3           24.18 
         3038.6           29.28 
         3038.9            34.4 
         3039.2           39.08 
         3039.5           42.86 
         3039.8           45.21 
         3040.1           45.63 
         3040.4           43.97 
         3040.7            40.7 
           3041           36.84 
         3041.3           33.68 
         3041.6           32.26 
         3041.9           32.98 
         3042.2           35.42 
         3042.5           38.58 
         3042.8           41.29 
         3043.1           42.71 
         3043.4           42.68 
         3043.7           41.58 
           3044           40.12 
         3044.3           38.97 
         3044.6           38.51 
         3044.9           38.75 
         3045.2           39.37 
         3045.5           39.69 
         3045.8           38.96 
         3046.1            36.6 
         3046.4           32.51 
         3046.7            27.2 
           3047           21.59 
         3047.3           16.79 
         3047.6           13.72 
         3047.9           12.91 
         3048.2           14.42 
         3048.5            17.9 
         3048.8           22.52 
         3049.1           27.13 
         3049.4            30.5 
         3049.7            31.8 
           3050           30.92 
         3050.3           28.53 
         3050.6           25.78 
         3050.9           23.78 
         3051.2           23.18 
         3051.5           24.01 
         3051.8           25.78 
         3052.1           27.67 
         3052.4           28.89 
         3052.7           28.84 
           3053           27.42 
         3053.3           25.02 
         3053.6           22.38 
         3053.9           20.26 
         3054.2           19.21 
         3054.5           19.32 
         3054.8           20.27 
         3055.1           21.46 
         3055.4           22.31 
         3055.7           22.44 
           3056            21.8 
         3056.3            20.6 
         3056.6           19.18 
         3056.9           17.81 
         3057.2           16.64 
         3057.5           15.65 
         3057.8           14.73 
         3058.1           13.82 
         3058.4           12.99 
         3058.7           12.56 
           3059           12.96 
         3059.3           14.58 
         3059.6           17.56 
         3059.9           21.75 
         3060.2           26.74 
         3060.5           32.03 
         3060.8           37.13 
         3061.1           41.66 
         3061.4           45.32 
         3061.7           47.68 
           3062           48.25 
         3062.3           46.52 
         3062.6           42.33 
         3062.9           36.11 
         3063.2           28.91 
         3063.5           22.06 
         3063.8           16.67 
         3064.1           13.25 
         3064.4           11.71 
         3064.7           11.52 
           3065           12.12 
         3065.3            13.2 
         3065.6           14.73 
         3065.9           16.82 
         3066.2           19.43 
         3066.5           22.21 
         3066.8           24.61 
         3067.1           26.09 
         3067.4           26.46 
         3067.7           25.94 
           3068           24.97 
         3068.3           23.89 
         3068.6           22.79 
         3068.9           21.53 
         3069.2           19.97 
         3069.5           18.25 
         3069.8           16.83 
         3070.1            16.4 
         3070.4           17.56 
         3070.7           20.46 
           3071            24.7 
         3071.3           29.51 
         3071.6            34.1 
         3071.9           38.05 
         3072.2           41.44 
         3072.5           44.67 
         3072.8           48.16 
         3073.1           52.07 
         3073.4           56.15 
         3073.7           59.77 
           3074           62.19 
         3074.3           62.95 
         3074.6            62.3 
         3074.9           61.28 
         3075.2           61.36 
         3075.5           63.72 
         3075.8           68.52 
         3076.1           74.57 
         3076.4           79.87 
         3076.7           82.52 
           3077           81.66 
         3077.3           77.73 
         3077.6           72.08 
         3077.9           66.16 
         3078.2           60.94 
         3078.5           56.57 
         3078.8           52.52 
         3079.1           48.03 
         3079.4           42.68 
         3079.7           36.54 
           3080           30.14 
         3080.3           24.13 
         3080.6           18.95 
         3080.9            14.8 
         3081.2           11.73 
         3081.5           9.714 
         3081.8           8.727 
         3082.1           8.673 
         3082.4           9.338 
         3082.7           10.45 
           3083            11.8 
         3083.3           13.38 
         3083.6           15.36 
         3083.9           17.94 
         3084.2            21.3 
         3084.5           25.43 
         3084.8           30.19 
         3085.1            35.2 
         3085.4           39.88 
         3085.7           43.64 
           3086           46.31 
         3086.3           48.52 
         3086.6           51.58 
         3086.9           56.94 
         3087.2           65.33 
         3087.5           76.11 
         3087.8           87.21 
         3088.1           95.62 
         3088.4           98.59 
         3088.7           94.65 
           3089           84.24 
         3089.3           69.49 
         3089.6           53.29 
         3089.9           38.28 
         3090.2           26.16 
         3090.5           17.48 
         3090.8           11.91 
         3091.1           8.672 
         3091.4            6.94 
         3091.7           6.099 
           3092           5.852 
         3092.3           6.218 
         3092.6           7.418 
         3092.9           9.699 
         3093.2           13.16 
         3093.5           17.63 
         3093.8           22.71 
         3094.1           27.83 
         3094.4            32.4 
         3094.7           35.83 
           3095            37.7 
         3095.3           37.91 
         3095.6           37.01 
         3095.9           36.39 
         3096.2           38.04 
         3096.5           43.82 
         3096.8           54.37 
         3097.1           68.33 
         3097.4           82.29 
         3097.7           91.98 
           3098              94 
         3098.3           87.44 
         3098.6           74.17 
         3098.9           57.99 
         3099.2           42.87 
         3099.5           31.55 
         3099.8           24.89 
         3100.1           22.16 
         3100.4           21.78 
         3100.7           22.28 
           3101           22.92 
         3101.3           26.43 
         3101.6           31.52 
         3101.9           39.77 
         3102.2           50.87 
         3102.5           63.57 
         3102.8           76.25 
         3103.1           87.54 
         3103.4           96.56 
         3103.7           102.8 
           3104           105.8 
         3104.3           104.6 
         3104.6           98.65 
         3104.9           88.17 
         3105.2            74.7 
         3105.5           60.61 
         3105.8           48.25 
         3106.1           39.26 
         3106.4            34.3 
         3106.7           33.31 
           3107           35.61 
         3107.3           40.05 
         3107.6           45.07 
         3107.9           49.09 
         3108.2           51.07 
         3108.5           50.92 
         3108.8           49.63 
         3109.1           48.92 
         3109.4           50.51 
         3109.7           55.66 
           3110            64.5 
         3110.3           75.88 
         3110.6           87.39 
         3110.9              96 
         3111.2           99.09 
         3111.5           95.57 
         3111.8           86.37 
         3112.1           73.96 
         3112.4           61.36 
         3112.7           51.03 
           3113           44.49 
         3113.3           42.37 
         3113.6           44.82 
         3113.9           51.81 
         3114.2           62.94 
         3114.5           77.15 
         3114.8           92.36 
         3115.1           105.8 
         3115.4           114.1 
         3115.7           115.6 
           3116           109.8 
         3116.3           99.24 
         3116.6           88.23 
         3116.9           81.65 
         3117.2           82.99 
         3117.5           93.01 
         3117.8           109.6 
         3118.1           128.6 
         3118.4           145.6 
         3118.7             157 
           3119             162 
         3119.3           161.3 
         3119.6           157.4 
         3119.9           152.5 
         3120.2             147 
         3120.5           139.9 
         3120.8           129.3 
         3121.1           114.5 
         3121.4              97 
         3121.7           80.49 
           3122           69.26 
         3122.3           66.02 
         3122.6           70.47 
         3122.9           79.47 
         3123.2           88.56 
         3123.5           93.98 
         3123.8           94.39 
         3124.1           91.15 
         3124.4           87.16 
         3124.7           85.12 
           3125           85.95 
         3125.3           88.41 
         3125.6           90.14 
         3125.9           89.25 
         3126.2           85.39 
         3126.5           79.57 
         3126.8           73.13 
         3127.1           66.87 
         3127.4           60.94 
         3127.7           55.22 
           3128           49.74 
         3128.3           44.81 
         3128.6           40.91 
         3128.9           38.61 
         3129.2           38.37 
         3129.5           40.63 
         3129.8           45.84 
         3130.1           54.51 
         3130.4           67.06 
         3130.7            83.2 
           3131           101.2 
         3131.3           117.6 
         3131.6           128.5 
         3131.9           131.3 
         3132.2           125.7 
         3132.5           114.3 
         3132.8           100.7 
         3133.1           88.66 
         3133.4           80.39 
         3133.7           77.09 
           3134           78.95 
         3134.3           84.74 
         3134.6           91.79 
         3134.9           96.76 
         3135.2           97.13 
         3135.5           92.63 
         3135.8           85.46 
         3136.1           79.15 
         3136.4           77.01 
         3136.7           80.89 
           3137            90.7 
         3137.3           104.4 
         3137.6           118.7 
         3137.9           129.8 
         3138.2           135.7 
         3138.5           136.2 
         3138.8           133.6 
         3139.1             131 
         3139.4           131.5 
         3139.7           136.4 
           3140           145.5 
         3140.3           156.4 
         3140.6           166.3 
         3140.9           172.3 
         3141.2           173.5 
         3141.5             171 
         3141.8           166.9 
         3142.1           162.4 
         3142.4             157 
         3142.7           149.6 
           3143           140.3 
         3143.3           130.6 
         3143.6           122.3 
         3143.9           116.3 
         3144.2           111.8 
         3144.5             107 
         3144.8           100.5 
         3145.1           92.34 
         3145.4           83.24 
         3145.7           74.49 
           3146            67.4 
         3146.3           63.18 
         3146.6           63.07 
         3146.9           68.11 
         3147.2           78.93 
         3147.5            95.5 
         3147.8           116.8 
         3148.1           140.3 
         3148.4           162.1 
         3148.7           177.6 
           3149           183.6 
         3149.3           179.7 
         3149.6           168.5 
         3149.9           153.9 
         3150.2           138.8 
         3150.5           124.4 
         3150.8           110.6 
         3151.1           97.19 
         3151.4           84.65 
         3151.7           74.23 
           3152           67.09 
         3152.3           63.66 
         3152.6           63.47 
         3152.9           65.61 
         3153.2           69.51 
         3153.5           75.41 
         3153.8           83.94 
         3154.1           95.09 
         3154.4           107.2 
         3154.7           117.2 
           3155           121.7 
         3155.3           119.5 
         3155.6           111.9 
         3155.9           102.5 
         3156.2           95.27 
         3156.5           92.69 
         3156.8            95.2 
         3157.1           101.5 
         3157.4           109.6 
         3157.7           117.8 
           3158             125 
         3158.3           130.8 
         3158.6           134.9 
         3158.9           136.7 
         3159.2           135.2 
         3159.5           130.4 
         3159.8           123.4 
         3160.1           117.3 
         3160.4           115.5 
         3160.7           119.7 
           3161           129.2 
         3161.3           141.3 
         3161.6           152.7 
         3161.9           162.4 
         3162.2           170.9 
         3162.5           179.3 
         3162.8             188 
         3163.1           196.2 
         3163.4           203.2 
         3163.7           208.9 
           3164           213.6 
         3164.3           217.3 
         3164.6           219.2 
         3164.9           218.7 
         3165.2           216.7 
         3165.5           215.7 
         3165.8           219.6 
         3166.1           231.8 
         3166.4           253.9 
         3166.7           283.4 
           3167           314.8 
         3167.3           339.5 
         3167.6           350.7 
         3167.9           345.5 
         3168.2           327.6 
         3168.5           305.3 
         3168.8           287.7 
         3169.1           279.4 
         3169.4           278.3 
         3169.7           278.1 
           3170           272.6 
         3170.3           259.5 
         3170.6           241.6 
         3170.9           224.5 
         3171.2           213.6 
         3171.5           210.1 
         3171.8           211.8 
         3172.1           213.8 
         3172.4           212.4 
         3172.7             207 
           3173           200.6 
         3173.3           198.4 
         3173.6           204.8 
         3173.9           221.8 
         3174.2           247.4 
         3174.5           277.6 
         3174.8           307.1 
         3175.1           331.1 
         3175.4           345.3 
         3175.7           347.1 
           3176           335.8 
         3176.3           313.6 
         3176.6           285.2 
         3176.9           257.1 
         3177.2           236.3 
         3177.5           227.6 
         3177.8           231.7 
         3178.1           244.7 
