# Granada HRES Library
# atmosphere = Spectrum  (atmosphere model used)
# feh = 0  (value for [Fe/H] for the model.)
# logg = 1 log(cm/s2) (value for Log(G) for the model.)
# teff = 5750 K (value for the effective temperature for the model. Temperatures are given in K)
#
# column 1: WAVELENGTH (ANGSTROM), Wavelength in Angstrom
# column 2: FLUX (ERG/CM2/S/A), Flux in erg/cm2/s/A
         3000.2        1.103e+6 
         3000.5         1.08e+6 
         3000.8        1.059e+6 
         3001.1        1.037e+6 
         3001.4        1.013e+6 
         3001.7          986400 
           3002          961000 
         3002.3          944300 
         3002.6          946800 
         3002.9          978500 
         3003.2        1.046e+6 
         3003.5        1.152e+6 
         3003.8         1.29e+6 
         3004.1        1.452e+6 
         3004.4        1.622e+6 
         3004.7        1.785e+6 
           3005        1.924e+6 
         3005.3        2.025e+6 
         3005.6         2.08e+6 
         3005.9        2.085e+6 
         3006.2        2.044e+6 
         3006.5        1.966e+6 
         3006.8        1.864e+6 
         3007.1        1.752e+6 
         3007.4        1.646e+6 
         3007.7        1.556e+6 
           3008        1.495e+6 
         3008.3         1.47e+6 
         3008.6        1.486e+6 
         3008.9        1.542e+6 
         3009.2         1.63e+6 
         3009.5        1.739e+6 
         3009.8        1.853e+6 
         3010.1        1.954e+6 
         3010.4        2.028e+6 
         3010.7        2.068e+6 
           3011        2.074e+6 
         3011.3         2.05e+6 
         3011.6         2.01e+6 
         3011.9        1.966e+6 
         3012.2        1.926e+6 
         3012.5        1.895e+6 
         3012.8        1.875e+6 
         3013.1        1.864e+6 
         3013.4        1.859e+6 
         3013.7        1.857e+6 
           3014        1.854e+6 
         3014.3        1.849e+6 
         3014.6         1.84e+6 
         3014.9        1.828e+6 
         3015.2        1.814e+6 
         3015.5        1.802e+6 
         3015.8        1.795e+6 
         3016.1         1.79e+6 
         3016.4        1.785e+6 
         3016.7        1.773e+6 
           3017        1.751e+6 
         3017.3        1.714e+6 
         3017.6        1.663e+6 
         3017.9        1.599e+6 
         3018.2        1.523e+6 
         3018.5        1.436e+6 
         3018.8        1.336e+6 
         3019.1        1.225e+6 
         3019.4        1.109e+6 
         3019.7          996800 
           3020          901900 
         3020.3          841500 
         3020.6          832800 
         3020.9          886900 
         3021.2        1.005e+6 
         3021.5        1.175e+6 
         3021.8        1.375e+6 
         3022.1        1.578e+6 
         3022.4        1.755e+6 
         3022.7        1.888e+6 
           3023        1.968e+6 
         3023.3        1.995e+6 
         3023.6        1.982e+6 
         3023.9         1.94e+6 
         3024.2        1.877e+6 
         3024.5        1.802e+6 
         3024.8        1.721e+6 
         3025.1        1.644e+6 
         3025.4        1.582e+6 
         3025.7        1.552e+6 
           3026        1.566e+6 
         3026.3        1.628e+6 
         3026.6        1.732e+6 
         3026.9        1.861e+6 
         3027.2        1.997e+6 
         3027.5        2.117e+6 
         3027.8        2.206e+6 
         3028.1        2.252e+6 
         3028.4        2.253e+6 
         3028.7        2.211e+6 
           3029        2.136e+6 
         3029.3        2.039e+6 
         3029.6        1.934e+6 
         3029.9        1.833e+6 
         3030.2        1.745e+6 
         3030.5        1.676e+6 
         3030.8        1.633e+6 
         3031.1         1.62e+6 
         3031.4        1.639e+6 
         3031.7        1.686e+6 
           3032        1.752e+6 
         3032.3        1.823e+6 
         3032.6        1.887e+6 
         3032.9        1.937e+6 
         3033.2        1.969e+6 
         3033.5        1.992e+6 
         3033.8        2.012e+6 
         3034.1        2.036e+6 
         3034.4        2.068e+6 
         3034.7        2.102e+6 
           3035        2.127e+6 
         3035.3        2.127e+6 
         3035.6        2.091e+6 
         3035.9        2.009e+6 
         3036.2        1.886e+6 
         3036.5        1.734e+6 
         3036.8        1.577e+6 
         3037.1        1.437e+6 
         3037.4        1.335e+6 
         3037.7        1.286e+6 
           3038        1.289e+6 
         3038.3        1.339e+6 
         3038.6        1.423e+6 
         3038.9        1.524e+6 
         3039.2        1.626e+6 
         3039.5        1.716e+6 
         3039.8        1.783e+6 
         3040.1        1.821e+6 
         3040.4        1.827e+6 
         3040.7        1.806e+6 
           3041        1.763e+6 
         3041.3        1.709e+6 
         3041.6        1.654e+6 
         3041.9        1.611e+6 
         3042.2        1.586e+6 
         3042.5        1.582e+6 
         3042.8        1.596e+6 
         3043.1        1.617e+6 
         3043.4        1.638e+6 
         3043.7        1.652e+6 
           3044        1.657e+6 
         3044.3        1.658e+6 
         3044.6         1.66e+6 
         3044.9        1.667e+6 
         3045.2         1.68e+6 
         3045.5        1.691e+6 
         3045.8        1.692e+6 
         3046.1        1.673e+6 
         3046.4        1.632e+6 
         3046.7        1.574e+6 
           3047        1.511e+6 
         3047.3         1.46e+6 
         3047.6        1.437e+6 
         3047.9        1.447e+6 
         3048.2        1.491e+6 
         3048.5         1.56e+6 
         3048.8        1.643e+6 
         3049.1        1.726e+6 
         3049.4        1.801e+6 
         3049.7        1.866e+6 
           3050        1.927e+6 
         3050.3        1.992e+6 
         3050.6         2.07e+6 
         3050.9        2.165e+6 
         3051.2        2.271e+6 
         3051.5        2.373e+6 
         3051.8         2.45e+6 
         3052.1        2.485e+6 
         3052.4        2.467e+6 
         3052.7        2.398e+6 
           3053         2.29e+6 
         3053.3        2.162e+6 
         3053.6        2.037e+6 
         3053.9        1.932e+6 
         3054.2        1.863e+6 
         3054.5        1.831e+6 
         3054.8        1.833e+6 
         3055.1        1.854e+6 
         3055.4        1.875e+6 
         3055.7        1.876e+6 
           3056        1.845e+6 
         3056.3        1.777e+6 
         3056.6         1.68e+6 
         3056.9         1.57e+6 
         3057.2        1.467e+6 
         3057.5        1.385e+6 
         3057.8        1.333e+6 
         3058.1         1.31e+6 
         3058.4        1.311e+6 
         3058.7        1.334e+6 
           3059        1.379e+6 
         3059.3         1.45e+6 
         3059.6        1.547e+6 
         3059.9        1.668e+6 
         3060.2          1.8e+6 
         3060.5        1.927e+6 
         3060.8         2.03e+6 
         3061.1        2.096e+6 
         3061.4         2.12e+6 
         3061.7        2.102e+6 
           3062        2.049e+6 
         3062.3        1.972e+6 
         3062.6         1.88e+6 
         3062.9        1.789e+6 
         3063.2        1.709e+6 
         3063.5         1.65e+6 
         3063.8        1.615e+6 
         3064.1        1.601e+6 
         3064.4        1.596e+6 
         3064.7        1.588e+6 
           3065        1.565e+6 
         3065.3        1.521e+6 
         3065.6         1.46e+6 
         3065.9        1.395e+6 
         3066.2        1.342e+6 
         3066.5        1.314e+6 
         3066.8        1.324e+6 
         3067.1        1.375e+6 
         3067.4        1.465e+6 
         3067.7        1.586e+6 
           3068        1.725e+6 
         3068.3         1.87e+6 
         3068.6        2.003e+6 
         3068.9         2.11e+6 
         3069.2        2.179e+6 
         3069.5        2.201e+6 
         3069.8        2.178e+6 
         3070.1        2.117e+6 
         3070.4        2.029e+6 
         3070.7        1.926e+6 
           3071        1.819e+6 
         3071.3        1.715e+6 
         3071.6        1.623e+6 
         3071.9        1.552e+6 
         3072.2        1.511e+6 
         3072.5        1.508e+6 
         3072.8        1.542e+6 
         3073.1        1.605e+6 
         3073.4        1.675e+6 
         3073.7        1.732e+6 
           3074        1.756e+6 
         3074.3        1.744e+6 
         3074.6        1.703e+6 
         3074.9        1.657e+6 
         3075.2        1.631e+6 
         3075.5        1.643e+6 
         3075.8        1.698e+6 
         3076.1         1.78e+6 
         3076.4        1.866e+6 
         3076.7        1.929e+6 
           3077        1.949e+6 
         3077.3        1.921e+6 
         3077.6        1.855e+6 
         3077.9        1.774e+6 
         3078.2        1.704e+6 
         3078.5        1.667e+6 
         3078.8        1.675e+6 
         3079.1        1.728e+6 
         3079.4         1.81e+6 
         3079.7          1.9e+6 
           3080        1.975e+6 
         3080.3        2.021e+6 
         3080.6        2.031e+6 
         3080.9        2.007e+6 
         3081.2        1.959e+6 
         3081.5        1.901e+6 
         3081.8        1.845e+6 
         3082.1        1.806e+6 
         3082.4        1.795e+6 
         3082.7        1.816e+6 
           3083        1.873e+6 
         3083.3        1.964e+6 
         3083.6        2.082e+6 
         3083.9        2.214e+6 
         3084.2        2.349e+6 
         3084.5        2.469e+6 
         3084.8        2.561e+6 
         3085.1        2.612e+6 
         3085.4        2.614e+6 
         3085.7        2.563e+6 
           3086         2.46e+6 
         3086.3        2.313e+6 
         3086.6        2.136e+6 
         3086.9        1.949e+6 
         3087.2        1.774e+6 
         3087.5        1.631e+6 
         3087.8        1.533e+6 
         3088.1        1.486e+6 
         3088.4        1.484e+6 
         3088.7        1.516e+6 
           3089        1.567e+6 
         3089.3        1.624e+6 
         3089.6        1.681e+6 
         3089.9        1.736e+6 
         3090.2        1.786e+6 
         3090.5        1.833e+6 
         3090.8        1.871e+6 
         3091.1        1.896e+6 
         3091.4        1.902e+6 
         3091.7         1.88e+6 
           3092        1.833e+6 
         3092.3        1.766e+6 
         3092.6        1.695e+6 
         3092.9        1.639e+6 
         3093.2        1.616e+6 
         3093.5         1.63e+6 
         3093.8        1.677e+6 
         3094.1         1.74e+6 
         3094.4        1.802e+6 
         3094.7        1.843e+6 
           3095        1.854e+6 
         3095.3         1.83e+6 
         3095.6         1.78e+6 
         3095.9        1.715e+6 
         3096.2        1.652e+6 
         3096.5        1.606e+6 
         3096.8        1.588e+6 
         3097.1        1.597e+6 
         3097.4        1.625e+6 
         3097.7        1.656e+6 
           3098         1.67e+6 
         3098.3        1.653e+6 
         3098.6          1.6e+6 
         3098.9        1.515e+6 
         3099.2        1.412e+6 
         3099.5        1.306e+6 
         3099.8        1.213e+6 
         3100.1        1.144e+6 
         3100.4        1.105e+6 
         3100.7        1.101e+6 
           3101         1.13e+6 
         3101.3        1.193e+6 
         3101.6        1.284e+6 
         3101.9          1.4e+6 
         3102.2        1.529e+6 
         3102.5        1.658e+6 
         3102.8         1.77e+6 
         3103.1        1.853e+6 
         3103.4        1.895e+6 
         3103.7        1.897e+6 
           3104        1.862e+6 
         3104.3        1.804e+6 
         3104.6        1.739e+6 
         3104.9        1.685e+6 
         3105.2        1.655e+6 
         3105.5         1.66e+6 
         3105.8        1.701e+6 
         3106.1        1.773e+6 
         3106.4        1.867e+6 
         3106.7        1.969e+6 
           3107        2.067e+6 
         3107.3         2.15e+6 
         3107.6        2.214e+6 
         3107.9        2.253e+6 
         3108.2        2.265e+6 
         3108.5        2.251e+6 
         3108.8        2.212e+6 
         3109.1        2.155e+6 
         3109.4        2.087e+6 
         3109.7        2.022e+6 
           3110        1.975e+6 
         3110.3        1.958e+6 
         3110.6        1.976e+6 
         3110.9        2.028e+6 
         3111.2        2.104e+6 
         3111.5        2.189e+6 
         3111.8        2.269e+6 
         3112.1        2.333e+6 
         3112.4        2.372e+6 
         3112.7        2.381e+6 
           3113        2.363e+6 
         3113.3        2.321e+6 
         3113.6        2.265e+6 
         3113.9        2.206e+6 
         3114.2        2.154e+6 
         3114.5        2.117e+6 
         3114.8        2.099e+6 
         3115.1        2.097e+6 
         3115.4        2.105e+6 
         3115.7        2.109e+6 
           3116          2.1e+6 
         3116.3        2.066e+6 
         3116.6        2.008e+6 
         3116.9        1.925e+6 
         3117.2        1.828e+6 
         3117.5        1.725e+6 
         3117.8        1.629e+6 
         3118.1        1.547e+6 
         3118.4        1.484e+6 
         3118.7        1.439e+6 
           3119        1.412e+6 
         3119.3          1.4e+6 
         3119.6        1.402e+6 
         3119.9        1.419e+6 
         3120.2         1.45e+6 
         3120.5        1.494e+6 
         3120.8        1.545e+6 
         3121.1        1.599e+6 
         3121.4        1.653e+6 
         3121.7        1.707e+6 
           3122        1.763e+6 
         3122.3        1.824e+6 
         3122.6        1.888e+6 
         3122.9        1.951e+6 
         3123.2        2.003e+6 
         3123.5        2.031e+6 
         3123.8        2.024e+6 
         3124.1        1.981e+6 
         3124.4        1.909e+6 
         3124.7        1.828e+6 
           3125        1.764e+6 
         3125.3         1.74e+6 
         3125.6        1.773e+6 
         3125.9        1.863e+6 
         3126.2        1.995e+6 
         3126.5         2.14e+6 
         3126.8        2.267e+6 
         3127.1        2.352e+6 
         3127.4         2.38e+6 
         3127.7        2.353e+6 
           3128        2.283e+6 
         3128.3        2.187e+6 
         3128.6        2.085e+6 
         3128.9        1.988e+6 
         3129.2        1.898e+6 
         3129.5        1.815e+6 
         3129.8        1.733e+6 
         3130.1        1.652e+6 
         3130.4        1.576e+6 
         3130.7        1.511e+6 
           3131        1.461e+6 
         3131.3        1.428e+6 
         3131.6        1.412e+6 
         3131.9        1.407e+6 
         3132.2        1.412e+6 
         3132.5        1.424e+6 
         3132.8        1.443e+6 
         3133.1        1.468e+6 
         3133.4        1.501e+6 
         3133.7        1.547e+6 
           3134        1.605e+6 
         3134.3        1.676e+6 
         3134.6        1.756e+6 
         3134.9        1.839e+6 
         3135.2        1.915e+6 
         3135.5        1.979e+6 
         3135.8        2.029e+6 
         3136.1        2.067e+6 
         3136.4        2.103e+6 
         3136.7        2.144e+6 
           3137        2.194e+6 
         3137.3         2.25e+6 
         3137.6        2.303e+6 
         3137.9        2.344e+6 
         3138.2        2.366e+6 
         3138.5        2.365e+6 
         3138.8        2.348e+6 
         3139.1        2.322e+6 
         3139.4        2.298e+6 
         3139.7        2.287e+6 
           3140        2.295e+6 
         3140.3        2.318e+6 
         3140.6        2.346e+6 
         3140.9        2.365e+6 
         3141.2        2.358e+6 
         3141.5        2.316e+6 
         3141.8        2.236e+6 
         3142.1        2.121e+6 
         3142.4        1.981e+6 
         3142.7        1.827e+6 
           3143         1.67e+6 
         3143.3         1.52e+6 
         3143.6        1.385e+6 
         3143.9        1.274e+6 
         3144.2        1.197e+6 
         3144.5        1.162e+6 
         3144.8        1.171e+6 
         3145.1        1.224e+6 
         3145.4        1.311e+6 
         3145.7        1.419e+6 
           3146        1.534e+6 
         3146.3        1.641e+6 
         3146.6        1.735e+6 
         3146.9        1.814e+6 
         3147.2        1.882e+6 
         3147.5        1.946e+6 
         3147.8        2.012e+6 
         3148.1         2.08e+6 
         3148.4        2.149e+6 
         3148.7        2.215e+6 
           3149        2.275e+6 
         3149.3         2.33e+6 
         3149.6        2.381e+6 
         3149.9        2.429e+6 
         3150.2        2.471e+6 
         3150.5        2.503e+6 
         3150.8        2.521e+6 
         3151.1        2.522e+6 
         3151.4        2.511e+6 
         3151.7        2.493e+6 
           3152        2.474e+6 
         3152.3        2.457e+6 
         3152.6         2.44e+6 
         3152.9        2.417e+6 
         3153.2        2.381e+6 
         3153.5        2.326e+6 
         3153.8        2.253e+6 
         3154.1         2.17e+6 
         3154.4        2.088e+6 
         3154.7        2.018e+6 
           3155        1.968e+6 
         3155.3        1.943e+6 
         3155.6        1.941e+6 
         3155.9        1.955e+6 
         3156.2        1.971e+6 
         3156.5        1.976e+6 
         3156.8        1.958e+6 
         3157.1        1.909e+6 
         3157.4        1.831e+6 
         3157.7        1.733e+6 
           3158         1.63e+6 
         3158.3        1.537e+6 
         3158.6        1.467e+6 
         3158.9        1.428e+6 
         3159.2        1.417e+6 
         3159.5        1.421e+6 
         3159.8        1.423e+6 
         3160.1        1.409e+6 
         3160.4        1.373e+6 
         3160.7        1.317e+6 
           3161        1.257e+6 
         3161.3        1.212e+6 
         3161.6        1.198e+6 
         3161.9        1.229e+6 
         3162.2        1.309e+6 
         3162.5        1.431e+6 
         3162.8         1.58e+6 
         3163.1        1.732e+6 
         3163.4        1.865e+6 
         3163.7         1.96e+6 
           3164        2.008e+6 
         3164.3        2.014e+6 
         3164.6        1.991e+6 
         3164.9        1.958e+6 
         3165.2        1.931e+6 
         3165.5        1.919e+6 
         3165.8        1.924e+6 
         3166.1        1.941e+6 
         3166.4        1.959e+6 
         3166.7        1.966e+6 
           3167        1.952e+6 
         3167.3        1.915e+6 
         3167.6        1.861e+6 
         3167.9        1.803e+6 
         3168.2         1.76e+6 
         3168.5         1.75e+6 
         3168.8        1.781e+6 
         3169.1        1.853e+6 
         3169.4        1.955e+6 
         3169.7        2.073e+6 
           3170         2.19e+6 
         3170.3        2.296e+6 
         3170.6        2.384e+6 
         3170.9        2.456e+6 
         3171.2        2.514e+6 
         3171.5        2.562e+6 
         3171.8        2.601e+6 
         3172.1        2.629e+6 
         3172.4        2.642e+6 
         3172.7        2.635e+6 
           3173        2.607e+6 
         3173.3         2.56e+6 
         3173.6        2.502e+6 
         3173.9        2.443e+6 
         3174.2        2.392e+6 
         3174.5        2.359e+6 
         3174.8         2.35e+6 
         3175.1        2.368e+6 
         3175.4        2.408e+6 
         3175.7         2.46e+6 
           3176        2.506e+6 
         3176.3        2.528e+6 
         3176.6        2.514e+6 
         3176.9        2.455e+6 
         3177.2        2.354e+6 
         3177.5         2.22e+6 
         3177.8        2.063e+6 
         3178.1        1.899e+6 
