# Granada HRES Library
# atmosphere = Spectrum  (atmosphere model used)
# feh = -10  (value for [Fe/H] for the model.)
# logg = 1 log(cm/s2) (value for Log(G) for the model.)
# teff = 5250 K (value for the effective temperature for the model. Temperatures are given in K)
#
# column 1: WAVELENGTH (ANGSTROM), Wavelength in Angstrom
# column 2: FLUX (ERG/CM2/S/A), Flux in erg/cm2/s/A
         3000.2          534200 
         3000.5          533700 
         3000.8          533600 
         3001.1          533200 
         3001.4          531800 
         3001.7          529900 
           3002          528500 
         3002.3          529900 
         3002.6          536800 
         3002.9          551500 
         3003.2          575300 
         3003.5          608000 
         3003.8          647600 
         3004.1          690700 
         3004.4          733200 
         3004.7          771300 
           3005          801700 
         3005.3          821700 
         3005.6          830000 
         3005.9          826600 
         3006.2          812600 
         3006.5          790100 
         3006.8          762200 
         3007.1          732400 
         3007.4          704500 
         3007.7          682300 
           3008          668900 
         3008.3          666500 
         3008.6          676300 
         3008.9          697700 
         3009.2          728300 
         3009.5          764400 
         3009.8          801200 
         3010.1          833900 
         3010.4          858700 
         3010.7          873400 
           3011          877600 
         3011.3          873300 
         3011.6          862900 
         3011.9          849500 
         3012.2          835400 
         3012.5          822000 
         3012.8          810100 
         3013.1          799900 
         3013.4          791100 
         3013.7          783600 
           3014          777100 
         3014.3          771300 
         3014.6          766000 
         3014.9          761200 
         3015.2          757200 
         3015.5          754500 
         3015.8          753200 
         3016.1          753100 
         3016.4          753200 
         3016.7          752500 
           3017          749400 
         3017.3          742600 
         3017.6          730900 
         3017.9          713300 
         3018.2          689000 
         3018.5          657700 
         3018.8          619900 
         3019.1          577000 
         3019.4          532000 
         3019.7          489100 
           3020          453900 
         3020.3          432200 
         3020.6          429300 
         3020.9          448400 
         3021.2          489000 
         3021.5          547100 
         3021.8          615400 
         3022.1          685000 
         3022.4          747700 
         3022.7          796500 
           3023          828100 
         3023.3          841800 
         3023.6          839200 
         3023.9          823600 
         3024.2          798800 
         3024.5          768800 
         3024.8          737500 
         3025.1          709600 
         3025.4          689500 
         3025.7          681500 
           3026          688200 
         3026.3          709700 
         3026.6          743600 
         3026.9          784700 
         3027.2          827100 
         3027.5          864900 
         3027.8          893500 
         3028.1          910000 
         3028.4          913400 
         3028.7          905100 
           3029          887400 
         3029.3          863700 
         3029.6          837600 
         3029.9          812400 
         3030.2          790800 
         3030.5          774800 
         3030.8          765500 
         3031.1          763500 
         3031.4          768500 
         3031.7          779100 
           3032          793200 
         3032.3          808300 
         3032.6          822300 
         3032.9          834200 
         3033.2          844200 
         3033.5          853400 
         3033.8          863000 
         3034.1          873700 
         3034.4          884900 
         3034.7          894300 
           3035          898600 
         3035.3          894100 
         3035.6          877800 
         3035.9          848800 
         3036.2          808800 
         3036.5          762300 
         3036.8          715600 
         3037.1          675800 
         3037.4          648900 
         3037.7          638300 
           3038          645000 
         3038.3          666800 
         3038.6          698900 
         3038.9          735300 
         3039.2          770300 
         3039.5          798600 
         3039.8          816600 
         3040.1          822800 
         3040.4          817600 
         3040.7          803300 
           3041          783700 
         3041.3          762700 
         3041.6          744900 
         3041.9          733200 
         3042.2          729400 
         3042.5          733300 
         3042.8          742800 
         3043.1          755200 
         3043.4          768000 
         3043.7          779300 
           3044          788600 
         3044.3          796400 
         3044.6          803400 
         3044.9          809500 
         3045.2          813800 
         3045.5          814500 
         3045.8          809500 
         3046.1          797400 
         3046.4          778700 
         3046.7          756400 
           3047          734600 
         3047.3          718600 
         3047.6          712400 
         3047.9          718000 
         3048.2          734900 
         3048.5          760100 
         3048.8          789700 
         3049.1          819500 
         3049.4          846400 
         3049.7          869500 
           3050          889800 
         3050.3          909300 
         3050.6          930100 
         3050.9          953400 
         3051.2          977600 
         3051.5          999400 
         3051.8        1.015e+6 
         3052.1         1.02e+6 
         3052.4        1.012e+6 
         3052.7          992000 
           3053          963500 
         3053.3          931600 
         3053.6          902200 
         3053.9          880300 
         3054.2          868800 
         3054.5          868100 
         3054.8          875400 
         3055.1          885500 
         3055.4          892700 
         3055.7          891700 
           3056          879200 
         3056.3          854600 
         3056.6          820600 
         3056.9          781800 
         3057.2          743300 
         3057.5          710000 
         3057.8          684500 
         3058.1          668200 
         3058.4          660900 
         3058.7          662500 
           3059          673300 
         3059.3          693700 
         3059.6          723000 
         3059.9          759600 
         3060.2          799900 
         3060.5          838900 
         3060.8          871600 
         3061.1          894100 
         3061.4          904200 
         3061.7          902000 
           3062          888700 
         3062.3          866900 
         3062.6          839900 
         3062.9          811200 
         3063.2          783900 
         3063.5          760300 
         3063.8          741900 
         3064.1          728300 
         3064.4          717800 
         3064.7          708200 
           3065          697000 
         3065.3          682800 
         3065.6          665600 
         3065.9          647200 
         3066.2          630300 
         3066.5          617900 
         3066.8          613000 
         3067.1          617600 
         3067.4          632200 
         3067.7          656600 
           3068          688600 
         3068.3          725300 
         3068.6          762800 
         3068.9          797200 
         3069.2          825000 
         3069.5          844000 
         3069.8          853900 
         3070.1          855500 
         3070.4          850800 
         3070.7          841600 
           3071          830200 
         3071.3          818500 
         3071.6          808200 
         3071.9          801700 
         3072.2          800900 
         3072.5          807200 
         3072.8          820200 
         3073.1          837300 
         3073.4          854200 
         3073.7          866300 
           3074          869900 
         3074.3          864100 
         3074.6          851400 
         3074.9          836400 
         3075.2          825400 
         3075.5          822700 
         3075.8          829900 
         3076.1          845000 
         3076.4          862900 
         3076.7          877900 
           3077          885300 
         3077.3          883000 
         3077.6          872500 
         3077.9          857900 
         3078.2          844300 
         3078.5          836100 
         3078.8          835700 
         3079.1          842800 
         3079.4          854300 
         3079.7          865800 
           3080          873200 
         3080.3          873500 
         3080.6          866200 
         3080.9          852100 
         3081.2          833800 
         3081.5          814600 
         3081.8          798300 
         3082.1          788300 
         3082.4          786800 
         3082.7          795500 
           3083          814600 
         3083.3          843300 
         3083.6          879300 
         3083.9          918900 
         3084.2          957700 
         3084.5          991200 
         3084.8        1.015e+6 
         3085.1        1.026e+6 
         3085.4        1.023e+6 
         3085.7        1.005e+6 
           3086          973900 
         3086.3          933500 
         3086.6          888000 
         3086.9          843100 
         3087.2          803600 
         3087.5          773100 
         3087.8          753400 
         3088.1          743600 
         3088.4          741300 
         3088.7          742800 
           3089          745400 
         3089.3          747800 
         3089.6          750100 
         3089.9          753400 
         3090.2          758700 
         3090.5          765900 
         3090.8          773400 
         3091.1          779000 
         3091.4          780000 
         3091.7          774600 
           3092          763100 
         3092.3          747400 
         3092.6          731400 
         3092.9          720000 
         3093.2          716600 
         3093.5          722500 
         3093.8          736300 
         3094.1          754300 
         3094.4          771900 
         3094.7          784500 
           3095          789300 
         3095.3          785400 
         3095.6          774300 
         3095.9          759100 
         3096.2          744200 
         3096.5          733600 
         3096.8          729600 
         3097.1          732000 
         3097.4          738300 
         3097.7          744100 
           3098          744500 
         3098.3          735700 
         3098.6          716200 
         3098.9          687200 
         3099.2          652100 
         3099.5          615700 
         3099.8          583100 
         3100.1          558500 
         3100.4          544900 
         3100.7          544000 
           3101          556200 
         3101.3          580900 
         3101.6          616500 
         3101.9          660300 
         3102.2          708800 
         3102.5          757500 
         3102.8          802000 
         3103.1          838000 
         3103.4          862300 
         3103.7          873200 
           3104          871500 
         3104.3          859800 
         3104.6          842400 
         3104.9          824700 
         3105.2          811900 
         3105.5          808200 
         3105.8          815800 
         3106.1          834500 
         3106.4          861900 
         3106.7          894300 
           3107          927300 
         3107.3          956900 
         3107.6          979700 
         3107.9          993700 
         3108.2          998000 
         3108.5          993100 
         3108.8          981100 
         3109.1          964200 
         3109.4          945900 
         3109.7          929800 
           3110          919300 
         3110.3          916400 
         3110.6          921800 
         3110.9          934600 
         3111.2          952700 
         3111.5          973100 
         3111.8          992200 
         3112.1        1.007e+6 
         3112.4        1.015e+6 
         3112.7        1.015e+6 
           3113        1.007e+6 
         3113.3          992600 
         3113.6          975100 
         3113.9          958400 
         3114.2          946800 
         3114.5          942900 
         3114.8          947100 
         3115.1          957100 
         3115.4          968600 
         3115.7          976100 
           3116          974800 
         3116.3          961900 
         3116.6          937200 
         3116.9          903400 
         3117.2          864700 
         3117.5          826000 
         3117.8          791600 
         3118.1          764500 
         3118.4          745700 
         3118.7          734900 
           3119          731000 
         3119.3          732200 
         3119.6          737100 
         3119.9          744300 
         3120.2          752700 
         3120.5          761400 
         3120.8          769600 
         3121.1          777100 
         3121.4          784700 
         3121.7          794300 
           3122          807500 
         3122.3          825500 
         3122.6          847800 
         3122.9          871700 
         3123.2          893300 
         3123.5          908000 
         3123.8          912500 
         3124.1          905500 
         3124.4          889600 
         3124.7          869900 
           3125          852800 
         3125.3          844900 
         3125.6          850000 
         3125.9          868400 
         3126.2          896600 
         3126.5          928500 
         3126.8          957000 
         3127.1          976300 
         3127.4          983000 
         3127.7          976800 
           3128          960100 
         3128.3          936700 
         3128.6          910700 
         3128.9          884700 
         3129.2          860100 
         3129.5          837000 
         3129.8          815900 
         3130.1          797400 
         3130.4          782700 
         3130.7          773000 
           3131          768800 
         3131.3          769400 
         3131.6          773300 
         3131.9          778600 
         3132.2          783300 
         3132.5          786500 
         3132.8          787800 
         3133.1          788200 
         3133.4          789400 
         3133.7          793500 
           3134          802200 
         3134.3          816200 
         3134.6          834600 
         3134.9          855500 
         3135.2          876100 
         3135.5          894300 
         3135.8          909500 
         3136.1          922400 
         3136.4          934800 
         3136.7          948300 
           3137          963500 
         3137.3          979700 
         3137.6          994700 
         3137.9        1.006e+6 
         3138.2        1.013e+6 
         3138.5        1.015e+6 
         3138.8        1.013e+6 
         3139.1        1.009e+6 
         3139.4        1.006e+6 
         3139.7        1.006e+6 
           3140        1.009e+6 
         3140.3        1.014e+6 
         3140.6        1.018e+6 
         3140.9        1.019e+6 
         3141.2        1.012e+6 
         3141.5          995000 
         3141.8          965200 
         3142.1          922900 
         3142.4          869400 
         3142.7          807700 
           3143          741800 
         3143.3          676800 
         3143.6          618000 
         3143.9          571100 
         3144.2          539900 
         3144.5          527400 
         3144.8          533900 
         3145.1          557600 
         3145.4          594800 
         3145.7          640100 
           3146          688200 
         3146.3          734700 
         3146.6          777000 
         3146.9          814400 
         3147.2          847700 
         3147.5          878200 
         3147.8          907200 
         3148.1          934700 
         3148.4          959900 
         3148.7          982300 
           3149        1.001e+6 
         3149.3        1.016e+6 
         3149.6        1.027e+6 
         3149.9        1.036e+6 
         3150.2        1.043e+6 
         3150.5        1.047e+6 
         3150.8        1.048e+6 
         3151.1        1.047e+6 
         3151.4        1.044e+6 
         3151.7         1.04e+6 
           3152        1.037e+6 
         3152.3        1.036e+6 
         3152.6        1.035e+6 
         3152.9        1.034e+6 
         3153.2        1.031e+6 
         3153.5        1.023e+6 
         3153.8        1.011e+6 
         3154.1          995800 
         3154.4          978400 
         3154.7          961200 
           3155          945900 
         3155.3          932800 
         3155.6          921200 
         3155.9          910000 
         3156.2          897000 
         3156.5          880900 
         3156.8          861400 
         3157.1          839100 
         3157.4          816200 
         3157.7          794900 
           3158          777800 
         3158.3          766700 
         3158.6          761800 
         3158.9          761800 
         3159.2          764500 
         3159.5          766100 
         3159.8          763600 
         3160.1          754500 
         3160.4          739300 
         3160.7          720500 
           3161          702600 
         3161.3          690200 
         3161.6          687900 
         3161.9          698300 
         3162.2          721200 
         3162.5          754300 
         3162.8          792800 
         3163.1          831300 
         3163.4          864100 
         3163.7          887700 
           3164          900800 
         3164.3          905200 
         3164.6          904100 
         3164.9          902100 
         3165.2          902800 
         3165.5          908200 
         3165.8          918600 
         3166.1          931900 
         3166.4          945200 
         3166.7          954600 
           3167          957100 
         3167.3          951700 
         3167.6          938900 
         3167.9          922100 
         3168.2          906400 
         3168.5          896700 
         3168.8          897100 
         3169.1          909400 
         3169.4          932900 
         3169.7          964600 
           3170        1.001e+6 
         3170.3        1.037e+6 
         3170.6        1.071e+6 
         3170.9        1.099e+6 
         3171.2        1.121e+6 
         3171.5        1.137e+6 
         3171.8        1.146e+6 
         3172.1        1.149e+6 
         3172.4        1.145e+6 
         3172.7        1.135e+6 
           3173        1.121e+6 
         3173.3        1.102e+6 
         3173.6        1.083e+6 
         3173.9        1.066e+6 
         3174.2        1.054e+6 
         3174.5        1.048e+6 
         3174.8        1.051e+6 
         3175.1        1.063e+6 
         3175.4         1.08e+6 
         3175.7        1.101e+6 
           3176         1.12e+6 
         3176.3        1.132e+6 
         3176.6        1.135e+6 
         3176.9        1.127e+6 
         3177.2        1.109e+6 
         3177.5        1.082e+6 
         3177.8        1.051e+6 
         3178.1        1.018e+6 
