# Granada HRES Library
# atmosphere = Phoenix  (atmosphere model used)
# feh = 3  (value for [Fe/H] for the model.)
# logg = 3.5 log(cm/s2) (value for Log(G) for the model.)
# teff = 4500 K (value for the effective temperature for the model. Temperatures are given in K)
#
# column 1: WAVELENGTH (ANGSTROM), Wavelength in Angstrom
# column 2: FLUX (ERG/CM2/S/A), Flux in erg/cm2/s/A
         3000.2            9564 
         3000.5            8928 
         3000.8            8492 
         3001.1            8240 
         3001.4            8075 
         3001.7            7887 
           3002            7623 
         3002.3            7365 
         3002.6            7312 
         3002.9            7694 
         3003.2            8666 
         3003.5           10240 
         3003.8           12290 
         3004.1           14580 
         3004.4           16840 
         3004.7           18820 
           3005           20300 
         3005.3           21170 
         3005.6           21310 
         3005.9           20720 
         3006.2           19500 
         3006.5           17810 
         3006.8           15970 
         3007.1           14260 
         3007.4           12960 
         3007.7           12240 
           3008           12170 
         3008.3           12700 
         3008.6           13700 
         3008.9           15030 
         3009.2           16550 
         3009.5           18180 
         3009.8           19700 
         3010.1           20860 
         3010.4           21380 
         3010.7           21160 
           3011           20380 
         3011.3           19420 
         3011.6           18780 
         3011.9           18770 
         3012.2           19380 
         3012.5           20320 
         3012.8           21190 
         3013.1           21630 
         3013.4           21550 
         3013.7           21000 
           3014           20200 
         3014.3           19390 
         3014.6           18720 
         3014.9           18290 
         3015.2           18130 
         3015.5           18190 
         3015.8           18450 
         3016.1           18800 
         3016.4           19120 
         3016.7           19250 
           3017           19070 
         3017.3           18530 
         3017.6           17720 
         3017.9           16750 
         3018.2           15680 
         3018.5           14520 
         3018.8           13230 
         3019.1           11800 
         3019.4           10280 
         3019.7            8764 
           3020            7382 
         3020.3            6327 
         3020.6            5799 
         3020.9            5953 
         3021.2            6833 
         3021.5            8342 
         3021.8           10250 
         3022.1           12230 
         3022.4           13960 
         3022.7           15130 
           3023           15590 
         3023.3           15360 
         3023.6           14640 
         3023.9           13750 
         3024.2           12950 
         3024.5           12360 
         3024.8           11930 
         3025.1           11580 
         3025.4           11310 
         3025.7           11250 
           3026           11590 
         3026.3           12460 
         3026.6           13810 
         3026.9           15430 
         3027.2           17080 
         3027.5           18540 
         3027.8           19730 
         3028.1           20660 
         3028.4           21400 
         3028.7           21980 
           3029           22350 
         3029.3           22420 
         3029.6           22100 
         3029.9           21370 
         3030.2           20400 
         3030.5           19530 
         3030.8           19240 
         3031.1           19960 
         3031.4           21870 
         3031.7           24740 
           3032           27890 
         3032.3           30460 
         3032.6           31680 
         3032.9           31270 
         3033.2           29460 
         3033.5           26870 
         3033.8           24270 
         3034.1           22280 
         3034.4           21210 
         3034.7           20950 
           3035           21120 
         3035.3           21220 
         3035.6           20850 
         3035.9           19830 
         3036.2           18250 
         3036.5           16380 
         3036.8           14610 
         3037.1           13300 
         3037.4           12710 
         3037.7           12900 
           3038           13750 
         3038.3           14990 
         3038.6           16360 
         3038.9           17680 
         3039.2           18860 
         3039.5           19850 
         3039.8           20540 
         3040.1           20810 
         3040.4           20590 
         3040.7           19890 
           3041           18840 
         3041.3           17730 
         3041.6           16910 
         3041.9           16700 
         3042.2           17300 
         3042.5           18660 
         3042.8           20550 
         3043.1           22620 
         3043.4           24600 
         3043.7           26280 
           3044           27570 
         3044.3           28420 
         3044.6           28830 
         3044.9           28850 
         3045.2           28480 
         3045.5           27690 
         3045.8           26380 
         3046.1           24460 
         3046.4           21990 
         3046.7           19200 
           3047           16530 
         3047.3           14420 
         3047.6           13250 
         3047.9           13150 
         3048.2           14100 
         3048.5           15850 
         3048.8           18010 
         3049.1           20110 
         3049.4           21660 
         3049.7           22340 
           3050           22150 
         3050.3           21390 
         3050.6           20550 
         3050.9           20070 
         3051.2           20170 
         3051.5           20800 
         3051.8           21660 
         3052.1           22400 
         3052.4           22700 
         3052.7           22380 
           3053           21470 
         3053.3           20190 
         3053.6           18850 
         3053.9           17740 
         3054.2           17040 
         3054.5           16820 
         3054.8           17000 
         3055.1           17410 
         3055.4           17830 
         3055.7           18050 
           3056           17920 
         3056.3           17420 
         3056.6           16630 
         3056.9           15730 
         3057.2           14890 
         3057.5           14200 
         3057.8           13670 
         3058.1           13220 
         3058.4           12850 
         3058.7           12660 
           3059           12920 
         3059.3           13890 
         3059.6           15730 
         3059.9           18390 
         3060.2           21570 
         3060.5           24840 
         3060.8           27780 
         3061.1           30090 
         3061.4           31650 
         3061.7           32450 
           3062           32440 
         3062.3           31530 
         3062.6           29650 
         3062.9           26920 
         3063.2           23750 
         3063.5           20740 
         3063.8           18470 
         3064.1           17250 
         3064.4           16990 
         3064.7           17340 
           3065           17820 
         3065.3           18060 
         3065.6           17910 
         3065.9           17460 
         3066.2           16950 
         3066.5           16650 
         3066.8           16830 
         3067.1           17680 
         3067.4           19390 
         3067.7           22060 
           3068           25630 
         3068.3           29690 
         3068.6           33520 
         3068.9           36250 
         3069.2           37230 
         3069.5           36350 
         3069.8           34170 
         3070.1           31620 
         3070.4           29660 
         3070.7           28900 
           3071           29470 
         3071.3           31130 
         3071.6           33450 
         3071.9           35930 
         3072.2           38110 
         3072.5           39540 
         3072.8           39950 
         3073.1           39350 
         3073.4           38070 
         3073.7           36610 
           3074           35370 
         3074.3           34470 
         3074.6           33860 
         3074.9           33570 
         3075.2           33870 
         3075.5           35180 
         3075.8           37690 
         3076.1           41040 
         3076.4           44290 
         3076.7           46290 
           3077           46300 
         3077.3           44360 
         3077.6           41270 
         3077.9           38160 
         3078.2           35980 
         3078.5           35100 
         3078.8           35270 
         3079.1           35800 
         3079.4           35910 
         3079.7           35040 
           3080           33020 
         3080.3           30020 
         3080.6           26530 
         3080.9           23160 
         3081.2           20450 
         3081.5           18770 
         3081.8           18220 
         3082.1           18620 
         3082.4           19610 
         3082.7           20770 
           3083           21880 
         3083.3           22940 
         3083.6           24210 
         3083.9           25960 
         3084.2           28310 
         3084.5           31160 
         3084.8           34150 
         3085.1           36810 
         3085.4           38710 
         3085.7           39660 
           3086           39900 
         3086.3           39970 
         3086.6           40530 
         3086.9           42030 
         3087.2           44520 
         3087.5           47660 
         3087.8           50730 
         3088.1           52800 
         3088.4           52950 
         3088.7           50720 
           3089           46370 
         3089.3           40870 
         3089.6           35480 
         3089.9           31070 
         3090.2           27870 
         3090.5           25460 
         3090.8           23280 
         3091.1           20920 
         3091.4           18360 
         3091.7           15860 
           3092           13810 
         3092.3           12600 
         3092.6           12490 
         3092.9           13570 
         3093.2           15690 
         3093.5           18450 
         3093.8           21380 
         3094.1           24010 
         3094.4           25990 
         3094.7           27130 
           3095           27370 
         3095.3           26820 
         3095.6           25740 
         3095.9           24520 
         3096.2           23680 
         3096.5           23770 
         3096.8           25120 
         3097.1           27680 
         3097.4           30830 
         3097.7           33540 
           3098           34760 
         3098.3           33830 
         3098.6           30850 
         3098.9           26570 
         3099.2           22060 
         3099.5           18300 
         3099.8           15830 
         3100.1           14710 
         3100.4           14620 
         3100.7           15170 
           3101           16110 
         3101.3           19750 
         3101.6           23290 
         3101.9           28270 
         3102.2           34310 
         3102.5           40580 
         3102.8           46100 
         3103.1           50220 
         3103.4           52880 
         3103.7           54350 
           3104           54880 
         3104.3           54300 
         3104.6           52210 
         3104.9           48360 
         3105.2           43070 
         3105.5           37160 
         3105.8           31710 
         3106.1           27530 
         3106.4           25030 
         3106.7           24160 
           3107           24640 
         3107.3           26080 
         3107.6           28040 
         3107.9           30150 
         3108.2           32030 
         3108.5           33420 
         3108.8           34210 
         3109.1           34570 
         3109.4           34940 
         3109.7           35990 
           3110           38350 
         3110.3           42330 
         3110.6           47600 
         3110.9           53200 
         3111.2           57840 
         3111.5           60360 
         3111.8           60210 
         3112.1           57600 
         3112.4           53400 
         3112.7           48770 
           3113           45030 
         3113.3           43270 
         3113.6           44190 
         3113.9           47890 
         3114.2           53850 
         3114.5           61060 
         3114.8           68220 
         3115.1           73910 
         3115.4           76790 
         3115.7           76020 
           3116           71510 
         3116.3           64240 
         3116.6           55910 
         3116.9           48380 
         3117.2           42980 
         3117.5           40030 
         3117.8           39000 
         3118.1           38910 
         3118.4           38870 
         3118.7           38480 
           3119           37900 
         3119.3           37740 
         3119.6           38650 
         3119.9           40900 
         3120.2           44100 
         3120.5           47140 
         3120.8           48810 
         3121.1           48420 
         3121.4           46280 
         3121.7           43690 
           3122           42300 
         3122.3           43430 
         3122.6           47460 
         3122.9           53640 
         3123.2           60400 
         3123.5           65990 
         3123.8           69130 
         3124.1           69570 
         3124.4           68030 
         3124.7           65830 
           3125           64140 
         3125.3           63630 
         3125.6           64290 
         3125.9           65680 
         3126.2           67080 
         3126.5           67640 
         3126.8           66570 
         3127.1           63440 
         3127.4           58440 
         3127.7           52480 
           3128           46780 
         3128.3           42410 
         3128.6           39930 
         3128.9           39230 
         3129.2           39680 
         3129.5           40420 
         3129.8           40850 
         3130.1           40860 
         3130.4           40820 
         3130.7           41280 
           3131           42520 
         3131.3           44260 
         3131.6           45830 
         3131.9           46390 
         3132.2           45430 
         3132.5           43000 
         3132.8           39690 
         3133.1           36550 
         3133.4           34750 
         3133.7           35230 
           3134           38280 
         3134.3           43260 
         3134.6           48660 
         3134.9           52710 
         3135.2           54200 
         3135.5           53110 
         3135.8           50500 
         3136.1           47940 
         3136.4           46710 
         3136.7           47510 
           3137           50460 
         3137.3           55390 
         3137.6           61970 
         3137.9           69630 
         3138.2           77470 
         3138.5           84260 
         3138.8           88810 
         3139.1           90330 
         3139.4           89020 
         3139.7           85950 
           3140           82590 
         3140.3           79880 
         3140.6           77840 
         3140.9           75790 
         3141.2           73080 
         3141.5           69720 
         3141.8           66210 
         3142.1           62990 
         3142.4           59970 
         3142.7           56670 
           3143           52750 
         3143.3           48460 
         3143.6           44430 
         3143.9           41350 
         3144.2           39610 
         3144.5           39290 
         3144.8           40290 
         3145.1           42330 
         3145.4           44900 
         3145.7           47310 
           3146           48880 
         3146.3           49410 
         3146.6           49310 
         3146.9           49660 
         3147.2           51850 
         3147.5           57220 
         3147.8           66570 
         3148.1           79650 
         3148.4           94850 
         3148.7          109500 
           3149          120900 
         3149.3          127100 
         3149.6          127500 
         3149.9          122900 
         3150.2          114800 
         3150.5          104600 
         3150.8           93550 
         3151.1           82670 
         3151.4           72650 
         3151.7           63900 
           3152           56580 
         3152.3           50700 
         3152.6           46200 
         3152.9           43020 
         3153.2           41190 
         3153.5           40960 
         3153.8           42680 
         3154.1           46470 
         3154.4           51810 
         3154.7           57390 
           3155           61560 
         3155.3           63080 
         3155.6           61850 
         3155.9           58740 
         3156.2           55140 
         3156.5           52170 
         3156.8           50470 
         3157.1           50070 
         3157.4           50720 
         3157.7           52060 
           3158           53890 
         3158.3           56050 
         3158.6           58320 
         3158.9           60250 
         3159.2           61110 
         3159.5           60230 
         3159.8           57420 
         3160.1           53230 
         3160.4           48830 
         3160.7           45550 
           3161           44570 
         3161.3           46770 
         3161.6           52720 
         3161.9           62470 
         3162.2           75140 
         3162.5           88610 
         3162.8           99820 
         3163.1          105800 
         3163.4          104900 
         3163.7           97880 
           3164           87030 
         3164.3           75360 
         3164.6           65240 
         3164.9           58000 
         3165.2           54110 
         3165.5           53510 
         3165.8           55890 
         3166.1           60790 
         3166.4           67530 
         3166.7           75150 
           3167           82430 
         3167.3           87970 
         3167.6           90620 
         3167.9           90020 
         3168.2           86870 
         3168.5           82950 
         3168.8           80250 
         3169.1           80230 
         3169.4           83220 
         3169.7           88580 
           3170           95190 
         3170.3          102000 
         3170.6          108600 
         3170.9          115300 
         3171.2          122700 
         3171.5          130800 
         3171.8          138600 
         3172.1          144600 
         3172.4          147600 
         3172.7          148700 
           3173          150500 
         3173.3          156000 
         3173.6          165900 
         3173.9          178300 
         3174.2          189700 
         3174.5          197800 
         3174.8          202700 
         3175.1          206400 
         3175.4          210300 
         3175.7          213500 
           3176          213300 
         3176.3          206900 
         3176.6          193200 
         3176.9          173900 
         3177.2          152800 
         3177.5          134100 
         3177.8          120600 
         3178.1          112200 
