# Granada HRES Library
# atmosphere = Phoenix  (atmosphere model used)
# feh = 0  (value for [Fe/H] for the model.)
# logg = 3 log(cm/s2) (value for Log(G) for the model.)
# teff = 4500 K (value for the effective temperature for the model. Temperatures are given in K)
#
# column 1: WAVELENGTH (ANGSTROM), Wavelength in Angstrom
# column 2: FLUX (ERG/CM2/S/A), Flux in erg/cm2/s/A
         3000.2            9562 
         3000.5            8875 
         3000.8            8398 
         3001.1            8126 
         3001.4            7969 
         3001.7            7816 
           3002            7621 
         3002.3            7480 
         3002.6            7620 
         3002.9            8306 
         3003.2            9722 
         3003.5           11890 
         3003.8           14640 
         3004.1           17710 
         3004.4           20720 
         3004.7           23380 
           3005           25410 
         3005.3           26590 
         3005.6           26750 
         3005.9           25870 
         3006.2           24040 
         3006.5           21530 
         3006.8           18730 
         3007.1           16100 
         3007.4           14030 
         3007.7           12760 
           3008           12420 
         3008.3           12940 
         3008.6           14170 
         3008.9           15950 
         3009.2           18080 
         3009.5           20390 
         3009.8           22590 
         3010.1           24290 
         3010.4           25140 
         3010.7           25020 
           3011           24170 
         3011.3           23140 
         3011.6           22570 
         3011.9           22830 
         3012.2           23890 
         3012.5           25320 
         3012.8           26530 
         3013.1           27080 
         3013.4           26800 
         3013.7           25870 
           3014           24610 
         3014.3           23350 
         3014.6           22330 
         3014.9           21650 
         3015.2           21290 
         3015.5           21210 
         3015.8           21310 
         3016.1           21500 
         3016.4           21610 
         3016.7           21470 
           3017           20930 
         3017.3           20010 
         3017.6           18810 
         3017.9           17490 
         3018.2           16100 
         3018.5           14650 
         3018.8           13100 
         3019.1           11460 
         3019.4            9773 
         3019.7            8146 
           3020            6724 
         3020.3            5678 
         3020.6            5192 
         3020.9            5407 
         3021.2            6370 
         3021.5            7993 
         3021.8           10060 
         3022.1           12250 
         3022.4           14200 
         3022.7           15580 
           3023           16200 
         3023.3           16070 
         3023.6           15410 
         3023.9           14560 
         3024.2           13780 
         3024.5           13180 
         3024.8           12730 
         3025.1           12330 
         3025.4           12040 
         3025.7           12070 
           3026           12690 
         3026.3           14090 
         3026.6           16230 
         3026.9           18910 
         3027.2           21870 
         3027.5           24850 
         3027.8           27680 
         3028.1           30210 
         3028.4           32270 
         3028.7           33630 
           3029           34040 
         3029.3           33350 
         3029.6           31600 
         3029.9           29060 
         3030.2           26320 
         3030.5           24150 
         3030.8           23410 
         3031.1           24800 
         3031.4           28500 
         3031.7           33980 
           3032           40000 
         3032.3           44970 
         3032.6           47560 
         3032.9           47200 
         3033.2           44250 
         3033.5           39810 
         3033.8           35190 
         3034.1           31470 
         3034.4           29170 
         3034.7           28150 
           3035           27790 
         3035.3           27330 
         3035.6           26190 
         3035.9           24180 
         3036.2           21480 
         3036.5           18520 
         3036.8           15800 
         3037.1           13780 
         3037.4           12740 
         3037.7           12750 
           3038           13660 
         3038.3           15210 
         3038.6           17100 
         3038.9           19130 
         3039.2           21100 
         3039.5           22810 
         3039.8           24020 
         3040.1           24570 
         3040.4           24330 
         3040.7           23400 
           3041           21960 
         3041.3           20390 
         3041.6           19150 
         3041.9           18680 
         3042.2           19290 
         3042.5           21020 
         3042.8           23670 
         3043.1           26920 
         3043.4           30440 
         3043.7           33870 
           3044           36810 
         3044.3           38880 
         3044.6           39790 
         3044.9           39480 
         3045.2           38080 
         3045.5           35810 
         3045.8           32850 
         3046.1           29330 
         3046.4           25410 
         3046.7           21420 
           3047           17810 
         3047.3           15110 
         3047.6           13700 
         3047.9           13750 
         3048.2           15150 
         3048.5           17580 
         3048.8           20490 
         3049.1           23230 
         3049.4           25160 
         3049.7           25900 
           3050           25530 
         3050.3           24590 
         3050.6           23840 
         3050.9           24000 
         3051.2           25370 
         3051.5           27770 
         3051.8           30590 
         3052.1           32950 
         3052.4           34070 
         3052.7           33520 
           3053           31400 
         3053.3           28290 
         3053.6           25000 
         3053.9           22270 
         3054.2           20530 
         3054.5           19920 
         3054.8           20260 
         3055.1           21210 
         3055.4           22270 
         3055.7           22970 
           3056           22940 
         3056.3           22080 
         3056.6           20530 
         3056.9           18640 
         3057.2           16770 
         3057.5           15180 
         3057.8           13940 
         3058.1           13030 
         3058.4           12410 
         3058.7           12200 
           3059           12670 
         3059.3           14150 
         3059.6           16870 
         3059.9           20820 
         3060.2           25730 
         3060.5           31160 
         3060.8           36620 
         3061.1           41690 
         3061.4           46080 
         3061.7           49480 
           3062           51440 
         3062.3           51400 
         3062.6           48960 
         3062.9           44240 
         3063.2           38090 
         3063.5           31790 
         3063.8           26700 
         3064.1           23680 
         3064.4           22860 
         3064.7           23700 
           3065           25240 
         3065.3           26470 
         3065.6           26700 
         3065.9           25790 
         3066.2           24130 
         3066.5           22460 
         3066.8           21610 
         3067.1           22340 
         3067.4           25220 
         3067.7           30550 
           3068           38090 
         3068.3           46910 
         3068.6           55290 
         3068.9           61310 
         3069.2           63510 
         3069.5           61740 
         3069.8           57300 
         3070.1           52400 
         3070.4           49050 
         3070.7           48290 
           3071           49950 
         3071.3           53030 
         3071.6           56360 
         3071.9           59100 
         3072.2           60800 
         3072.5           61300 
         3072.8           60540 
         3073.1           58660 
         3073.4           56100 
         3073.7           53430 
           3074           51150 
         3074.3           49500 
         3074.6           48590 
         3074.9           48720 
         3075.2           50620 
         3075.5           55120 
         3075.8           62460 
         3076.1           71530 
         3076.4           80000 
         3076.7           85140 
           3077           85180 
         3077.3           80250 
         3077.6           72300 
         3077.9           64150 
         3078.2           58300 
         3078.5           55920 
         3078.8           56630 
         3079.1           58900 
         3079.4           60830 
         3079.7           60800 
           3080           57970 
         3080.3           52450 
         3080.6           45160 
         3080.9           37550 
         3081.2           31040 
         3081.5           26630 
         3081.8           24680 
         3082.1           24870 
         3082.4           26520 
         3082.7           28960 
           3083           31850 
         3083.3           35310 
         3083.6           39700 
         3083.9           45240 
         3084.2           51660 
         3084.5           58230 
         3084.8           63940 
         3085.1           67840 
         3085.4           69300 
         3085.7           68330 
           3086           65750 
         3086.3           62940 
         3086.6           61440 
         3086.9           62260 
         3087.2           65630 
         3087.5           70950 
         3087.8           76860 
         3088.1           81590 
         3088.4           83310 
         3088.7           80830 
           3089           74230 
         3089.3           64980 
         3089.6           55280 
         3089.9           46900 
         3090.2           40520 
         3090.5           35700 
         3090.8           31530 
         3091.1           27390 
         3091.4           23170 
         3091.7           19230 
           3092           16090 
         3092.3           14210 
         3092.6           13850 
         3092.9           15020 
         3093.2           17470 
         3093.5           20700 
         3093.8           24120 
         3094.1           27150 
         3094.4           29330 
         3094.7           30430 
           3095           30410 
         3095.3           29470 
         3095.6           28020 
         3095.9           26670 
         3096.2           26100 
         3096.5           26970 
         3096.8           29620 
         3097.1           33790 
         3097.4           38520 
         3097.7           42350 
           3098           43840 
         3098.3           42260 
         3098.6           37860 
         3098.9           31790 
         3099.2           25520 
         3099.5           20290 
         3099.8           16760 
         3100.1           14960 
         3100.4           14520 
         3100.7           14990 
           3101           16170 
         3101.3           21770 
         3101.6           27360 
         3101.9           35190 
         3102.2           44660 
         3102.5           54580 
         3102.8           63570 
         3103.1           70760 
         3103.4           76020 
         3103.7           79550 
           3104           81310 
         3104.3           80690 
         3104.6           76950 
         3104.9           69980 
         3105.2           60790 
         3105.5           51250 
         3105.8           43400 
         3106.1           38490 
         3106.4           36820 
         3106.7           37800 
           3107           40430 
         3107.3           43660 
         3107.6           46710 
         3107.9           49100 
         3108.2           50660 
         3108.5           51490 
         3108.8           51930 
         3109.1           52610 
         3109.4           54500 
         3109.7           58730 
           3110           66270 
         3110.3           77420 
         3110.6           91380 
         3110.9          106100 
         3111.2          118800 
         3111.5          126800 
         3111.8          128300 
         3112.1          123200 
         3112.4          112900 
         3112.7          100300 
           3113           88570 
         3113.3           81220 
         3113.6           80570 
         3113.9           87230 
         3114.2           99870 
         3114.5          115400 
         3114.8          130100 
         3115.1          140100 
         3115.4          142700 
         3115.7          136900 
           3116          123600 
         3116.3          105700 
         3116.6           86760 
         3116.9           70430 
         3117.2           58910 
         3117.5           52620 
         3117.8           50430 
         3118.1           50440 
         3118.4           50940 
         3118.7           50980 
           3119           50650 
         3119.3           50800 
         3119.6           52420 
         3119.9           55900 
         3120.2           60500 
         3120.5           64500 
         3120.8           66000 
         3121.1           64090 
         3121.4           59410 
         3121.7           54000 
           3122           50500 
         3122.3           51010 
         3122.6           56410 
         3122.9           65970 
         3123.2           77530 
         3123.5           88200 
         3123.8           95420 
         3124.1           97960 
         3124.4           96490 
         3124.7           93050 
           3125           90100 
         3125.3           89380 
         3125.6           91430 
         3125.9           95520 
         3126.2           99990 
         3126.5          102700 
         3126.8          101700 
         3127.1           95950 
         3127.4           86380 
         3127.7           75260 
           3128           65480 
         3128.3           59340 
         3128.6           57660 
         3128.9           59640 
         3129.2           63290 
         3129.5           66350 
         3129.8           67280 
         3130.1           65770 
         3130.4           62620 
         3130.7           59230 
           3131           56620 
         3131.3           55080 
         3131.6           54130 
         3131.9           52900 
         3132.2           50700 
         3132.5           47410 
         3132.8           43630 
         3133.1           40600 
         3133.4           39910 
         3133.7           42830 
           3134           49740 
         3134.3           59520 
         3134.6           69680 
         3134.9           77250 
         3135.2           80170 
         3135.5           78360 
         3135.8           73630 
         3136.1           68650 
         3136.4           65710 
         3136.7           66120 
           3137           70170 
         3137.3           77560 
         3137.6           87670 
         3137.9           99620 
         3138.2          112100 
         3138.5          123100 
         3138.8          130700 
         3139.1          133700 
         3139.4          132200 
         3139.7          127900 
           3140          122700 
         3140.3          118500 
         3140.6          115200 
         3140.9          112000 
         3141.2          107600 
         3141.5          102300 
         3141.8           96570 
         3142.1           91190 
         3142.4           85900 
         3142.7           79910 
           3143           72670 
         3143.3           64600 
         3143.6           57000 
         3143.9           51490 
         3144.2           49360 
         3144.5           51350 
         3144.8           57430 
         3145.1           66590 
         3145.4           76780 
         3145.7           85190 
           3146           89370 
         3146.3           88490 
         3146.6           83940 
         3146.9           78980 
         3147.2           77590 
         3147.5           83180 
         3147.8           97480 
         3148.1          119800 
         3148.4          146700 
         3148.7          173400 
           3149          194600 
         3149.3          207100 
         3149.6          209900 
         3149.9          204400 
         3150.2          193000 
         3150.5          177500 
         3150.8          159900 
         3151.1          141500 
         3151.4          123400 
         3151.7          106900 
           3152           92970 
         3152.3           82400 
         3152.6           75290 
         3152.9           71060 
         3153.2           68750 
         3153.5           67630 
         3153.8           67590 
         3154.1           69080 
         3154.4           72280 
         3154.7           76480 
           3155           80070 
         3155.3           81340 
         3155.6           79500 
         3155.9           75050 
         3156.2           69430 
         3156.5           64260 
         3156.8           60690 
         3157.1           59140 
         3157.4           59430 
         3157.7           61010 
           3158           63340 
         3158.3           66030 
         3158.6           68720 
         3158.9           70910 
         3159.2           71890 
         3159.5           71050 
         3159.8           68220 
         3160.1           63970 
         3160.4           59550 
         3160.7           56500 
           3161           56380 
         3161.3           60510 
         3161.6           69740 
         3161.9           83960 
         3162.2          101600 
         3162.5          119400 
         3162.8          133100 
         3163.1          138900 
         3163.4          135200 
         3163.7          123400 
           3164          107200 
         3164.3           91030 
         3164.6           78040 
         3164.9           70180 
         3165.2           68040 
         3165.5           71540 
         3165.8           80030 
         3166.1           92450 
         3166.4          107000 
         3166.7          121500 
           3167          133300 
         3167.3          140000 
         3167.6          140500 
         3167.9          134900 
         3168.2          125400 
         3168.5          115200 
         3168.8          107700 
         3169.1          105400 
         3169.4          109200 
         3169.7          118700 
           3170          132700 
         3170.3          149700 
         3170.6          167800 
         3170.9          186300 
         3171.2          204100 
         3171.5          219900 
         3171.8          231600 
         3172.1          237000 
         3172.4          235700 
         3172.7          230000 
           3173          225300 
         3173.3          226300 
         3173.6          235100 
         3173.9          249300 
         3174.2          264900 
         3174.5          278900 
         3174.8          291500 
         3175.1          304600 
         3175.4          318600 
         3175.7          330700 
           3176          335400 
         3176.3          327900 
         3176.6          306200 
         3176.9          273700 
         3177.2          237000 
         3177.5          204200 
         3177.8          180200 
         3178.1          165700 
