# Granada HRES Library
# atmosphere = Phoenix  (atmosphere model used)
# feh = 0  (value for [Fe/H] for the model.)
# logg = 4.5 log(cm/s2) (value for Log(G) for the model.)
# teff = 4500 K (value for the effective temperature for the model. Temperatures are given in K)
#
# column 1: WAVELENGTH (ANGSTROM), Wavelength in Angstrom
# column 2: FLUX (ERG/CM2/S/A), Flux in erg/cm2/s/A
         3000.2           13640 
         3000.5           12950 
         3000.8           12440 
         3001.1           12090 
         3001.4           11810 
         3001.7           11460 
           3002           11000 
         3002.3           10550 
         3002.6           10380 
         3002.9           10790 
         3003.2           11980 
         3003.5           13950 
         3003.8           16510 
         3004.1           19330 
         3004.4           22070 
         3004.7           24420 
           3005           26150 
         3005.3           27140 
         3005.6           27300 
         3005.9           26600 
         3006.2           25120 
         3006.5           23080 
         3006.8           20790 
         3007.1           18640 
         3007.4           16950 
         3007.7           15960 
           3008           15710 
         3008.3           16170 
         3008.6           17170 
         3008.9           18590 
         3009.2           20330 
         3009.5           22270 
         3009.8           24230 
         3010.1           25880 
         3010.4           26900 
         3010.7           27050 
           3011           26440 
         3011.3           25440 
         3011.6           24570 
         3011.9           24260 
         3012.2           24600 
         3012.5           25380 
         3012.8           26190 
         3013.1           26680 
         3013.4           26660 
         3013.7           26150 
           3014           25310 
         3014.3           24350 
         3014.6           23450 
         3014.9           22730 
         3015.2           22260 
         3015.5           22050 
         3015.8           22060 
         3016.1           22250 
         3016.4           22490 
         3016.7           22610 
           3017           22500 
         3017.3           22090 
         3017.6           21450 
         3017.9           20650 
         3018.2           19740 
         3018.5           18710 
         3018.8           17500 
         3019.1           16090 
         3019.4           14480 
         3019.7           12770 
           3020           11110 
         3020.3            9786 
         3020.6            9057 
         3020.9            9152 
         3021.2           10130 
         3021.5           11870 
         3021.8           14060 
         3022.1           16290 
         3022.4           18150 
         3022.7           19330 
           3023           19680 
         3023.3           19260 
         3023.6           18350 
         3023.9           17320 
         3024.2           16470 
         3024.5           15920 
         3024.8           15580 
         3025.1           15320 
         3025.4           15130 
         3025.7           15180 
           3026           15730 
         3026.3           16920 
         3026.6           18710 
         3026.9           20840 
         3027.2           22950 
         3027.5           24790 
         3027.8           26220 
         3028.1           27270 
         3028.4           28000 
         3028.7           28490 
           3029           28740 
         3029.3           28710 
         3029.6           28380 
         3029.9           27740 
         3030.2           26910 
         3030.5           26090 
         3030.8           25660 
         3031.1           26000 
         3031.4           27380 
         3031.7           29720 
           3032           32550 
         3032.3           35070 
         3032.6           36510 
         3032.9           36430 
         3033.2           34920 
         3033.5           32520 
         3033.8           30030 
         3034.1           28170 
         3034.4           27300 
         3034.7           27350 
           3035           27840 
         3035.3           28170 
         3035.6           27870 
         3035.9           26710 
         3036.2           24840 
         3036.5           22580 
         3036.8           20410 
         3037.1           18780 
         3037.4           18020 
         3037.7           18240 
           3038           19270 
         3038.3           20770 
         3038.6           22390 
         3038.9           23840 
         3039.2           24940 
         3039.5           25610 
         3039.8           25780 
         3040.1           25410 
         3040.4           24530 
         3040.7           23270 
           3041           21850 
         3041.3           20610 
         3041.6           19900 
         3041.9           20010 
         3042.2           21060 
         3042.5           22920 
         3042.8           25270 
         3043.1           27690 
         3043.4           29790 
         3043.7           31380 
           3044           32350 
         3044.3           32760 
         3044.6           32740 
         3044.9           32460 
         3045.2           32000 
         3045.5           31330 
         3045.8           30290 
         3046.1           28680 
         3046.4           26480 
         3046.7           23890 
           3047           21320 
         3047.3           19260 
         3047.6           18090 
         3047.9           18000 
         3048.2           18960 
         3048.5           20730 
         3048.8           22920 
         3049.1           25050 
         3049.4           26650 
         3049.7           27430 
           3050           27380 
         3050.3           26810 
         3050.6           26230 
         3050.9           26050 
         3051.2           26480 
         3051.5           27410 
         3051.8           28540 
         3052.1           29470 
         3052.4           29860 
         3052.7           29480 
           3053           28360 
         3053.3           26730 
         3053.6           24960 
         3053.9           23460 
         3054.2           22550 
         3054.5           22350 
         3054.8           22770 
         3055.1           23560 
         3055.4           24350 
         3055.7           24800 
           3056           24690 
         3056.3           23970 
         3056.6           22780 
         3056.9           21380 
         3057.2           20020 
         3057.5           18900 
         3057.8           18080 
         3058.1           17510 
         3058.4           17160 
         3058.7           17130 
           3059           17630 
         3059.3           18900 
         3059.6           21020 
         3059.9           23870 
         3060.2           27060 
         3060.5           30150 
         3060.8           32730 
         3061.1           34590 
         3061.4           35720 
         3061.7           36210 
           3062           36070 
         3062.3           35190 
         3062.6           33390 
         3062.9           30680 
         3063.2           27340 
         3063.5           23960 
         3063.8           21180 
         3064.1           19410 
         3064.4           18730 
         3064.7           18860 
           3065           19340 
         3065.3           19700 
         3065.6           19700 
         3065.9           19310 
         3066.2           18740 
         3066.5           18240 
         3066.8           18050 
         3067.1           18330 
         3067.4           19140 
         3067.7           20500 
           3068           22320 
         3068.3           24400 
         3068.6           26420 
         3068.9           28010 
         3069.2           28920 
         3069.5           29150 
         3069.8           29010 
         3070.1           29040 
         3070.4           29750 
         3070.7           31400 
           3071           33840 
         3071.3           36660 
         3071.6           39410 
         3071.9           41760 
         3072.2           43560 
         3072.5           44740 
         3072.8           45230 
         3073.1           44990 
         3073.4           44120 
         3073.7           42840 
           3074           41420 
         3074.3           40020 
         3074.6           38700 
         3074.9           37580 
         3075.2           36990 
         3075.5           37330 
         3075.8           38830 
         3076.1           41290 
         3076.4           44020 
         3076.7           46170 
           3077           47070 
         3077.3           46600 
         3077.6           45110 
         3077.9           43290 
         3078.2           41780 
         3078.5           40890 
         3078.8           40450 
         3079.1           40010 
         3079.4           39050 
         3079.7           37240 
           3080           34590 
         3080.3           31380 
         3080.6           27980 
         3080.9           24820 
         3081.2           22230 
         3081.5           20440 
         3081.8           19530 
         3082.1           19450 
         3082.4           19980 
         3082.7           20840 
           3083           21830 
         3083.3           22920 
         3083.6           24190 
         3083.9           25760 
         3084.2           27620 
         3084.5           29710 
         3084.8           31890 
         3085.1           33950 
         3085.4           35640 
         3085.7           36710 
           3086           37120 
         3086.3           37110 
         3086.6           37220 
         3086.9           38000 
         3087.2           39770 
         3087.5           42410 
         3087.8           45300 
         3088.1           47510 
         3088.4           48120 
         3088.7           46600 
           3089           43130 
         3089.3           38490 
         3089.6           33740 
         3089.9           29670 
         3090.2           26600 
         3090.5           24340 
         3090.8           22520 
         3091.1           20780 
         3091.4           18990 
         3091.7           17200 
           3092           15630 
         3092.3           14630 
         3092.6           14540 
         3092.9           15590 
         3093.2           17710 
         3093.5           20570 
         3093.8           23660 
         3094.1           26430 
         3094.4           28470 
         3094.7           29560 
           3095           29670 
         3095.3           28930 
         3095.6           27620 
         3095.9           26180 
         3096.2           25130 
         3096.5           24980 
         3096.8           26000 
         3097.1           28060 
         3097.4           30570 
         3097.7           32610 
           3098           33330 
         3098.3           32320 
         3098.6           29730 
         3098.9           26230 
         3099.2           22710 
         3099.5           19920 
         3099.8           18310 
         3100.1           17870 
         3100.4           18280 
         3100.7           19110 
           3101           20040 
         3101.3           22370 
         3101.6           24390 
         3101.9           27320 
         3102.2           31080 
         3102.5           35310 
         3102.8           39520 
         3103.1           43300 
         3103.4           46420 
         3103.7           48720 
           3104           49930 
         3104.3           49740 
         3104.6           47910 
         3104.9           44600 
         3105.2           40400 
         3105.5           36120 
         3105.8           32570 
         3106.1           30230 
         3106.4           29200 
         3106.7           29280 
           3107           30160 
         3107.3           31460 
         3107.6           32860 
         3107.9           34100 
         3108.2           35050 
         3108.5           35780 
         3108.8           36510 
         3109.1           37590 
         3109.4           39340 
         3109.7           41990 
           3110           45520 
         3110.3           49680 
         3110.6           53970 
         3110.9           57750 
         3111.2           60480 
         3111.5           61850 
         3111.8           61830 
         3112.1           60600 
         3112.4           58450 
         3112.7           55970 
           3113           54080 
         3113.3           53870 
         3113.6           56270 
         3113.9           61640 
         3114.2           69430 
         3114.5           78260 
         3114.8           86230 
         3115.1           91380 
         3115.4           92280 
         3115.7           88440 
           3116           80560 
         3116.3           70360 
         3116.6           60060 
         3116.9           51700 
         3117.2           46420 
         3117.5           44320 
         3117.8           44610 
         3118.1           46040 
         3118.4           47570 
         3118.7           48690 
           3119           49660 
         3119.3           51230 
         3119.6           54130 
         3119.9           58450 
         3120.2           63260 
         3120.5           66840 
         3120.8           67480 
         3121.1           64490 
         3121.4           58620 
         3121.7           51790 
           3122           46210 
         3122.3           43490 
         3122.6           44120 
         3122.9           47500 
         3123.2           52330 
         3123.5           57080 
         3123.8           60530 
         3124.1           62130 
         3124.4           62110 
         3124.7           61340 
           3125           60990 
         3125.3           62210 
         3125.6           65730 
         3125.9           71620 
         3126.2           78930 
         3126.5           85710 
         3126.8           89520 
         3127.1           88440 
         3127.4           82120 
         3127.7           72130 
           3128           61100 
         3128.3           51620 
         3128.6           45180 
         3128.9           41870 
         3129.2           40870 
         3129.5           41140 
         3129.8           41910 
         3130.1           43000 
         3130.4           44600 
         3130.7           46910 
           3131           49760 
         3131.3           52560 
         3131.6           54400 
         3131.9           54550 
         3132.2           52750 
         3132.5           49310 
         3132.8           45090 
         3133.1           41130 
         3133.4           38520 
         3133.7           38090 
           3134           40160 
         3134.3           44290 
         3134.6           49200 
         3134.9           53380 
         3135.2           55620 
         3135.5           55750 
         3135.8           54680 
         3136.1           54010 
         3136.4           55370 
         3136.7           59960 
           3137           68090 
         3137.3           79030 
         3137.6           91090 
         3137.9          102000 
         3138.2          109600 
         3138.5          112500 
         3138.8          110700 
         3139.1          105100 
         3139.4           97340 
         3139.7           89300 
           3140           82470 
         3140.3           77520 
         3140.6           74230 
         3140.9           71760 
         3141.2           69350 
         3141.5           66700 
         3141.8           64040 
         3142.1           61570 
         3142.4           59200 
         3142.7           56570 
           3143           53490 
         3143.3           50220 
         3143.6           47340 
         3143.9           45450 
         3144.2           44850 
         3144.5           45580 
         3144.8           47490 
         3145.1           50250 
         3145.4           53180 
         3145.7           55370 
           3146           56000 
         3146.3           55020 
         3146.6           53380 
         3146.9           52860 
         3147.2           55440 
         3147.5           62470 
         3147.8           74000 
         3148.1           88490 
         3148.4          102900 
         3148.7          113800 
           3149          118400 
         3149.3          115900 
         3149.6          107600 
         3149.9           96070 
         3150.2           84150 
         3150.5           73860 
         3150.8           66170 
         3151.1           61130 
         3151.4           58290 
         3151.7           57000 
           3152           56680 
         3152.3           56840 
         3152.6           57100 
         3152.9           57220 
         3153.2           57300 
         3153.5           57900 
         3153.8           59880 
         3154.1           63880 
         3154.4           69620 
         3154.7           75660 
           3155           79910 
         3155.3           80840 
         3155.6           78250 
         3155.9           73390 
         3156.2           68210 
         3156.5           64440 
         3156.8           63010 
         3157.1           63930 
         3157.4           66600 
         3157.7           70140 
           3158           73860 
         3158.3           77300 
         3158.6           80130 
         3158.9           81930 
         3159.2           81990 
         3159.5           79710 
         3159.8           75030 
         3160.1           68800 
         3160.4           62610 
         3160.7           58290 
           3161           57380 
         3161.3           60950 
         3161.6           69500 
         3161.9           82820 
         3162.2           99450 
         3162.5          116400 
         3162.8          129800 
         3163.1          136000 
         3163.4          133200 
         3163.7          122800 
           3164          108400 
         3164.3           94150 
         3164.6           82990 
         3164.9           76530 
         3165.2           75190 
         3165.5           78850 
         3165.8           87110 
         3166.1           99010 
         3166.4          112700 
         3166.7          125400 
           3167          134200 
         3167.3          137000 
         3167.6          133600 
         3167.9          125900 
         3168.2          117200 
         3168.5          111500 
         3168.8          111400 
         3169.1          117500 
         3169.4          127900 
         3169.7          139400 
           3170          148800 
         3170.3          154400 
         3170.6          156900 
         3170.9          158500 
         3171.2          162100 
         3171.5          168900 
         3171.8          177900 
         3172.1          186000 
         3172.4          190700 
         3172.7          191900 
           3173          192700 
         3173.3          197200 
         3173.6          207300 
         3173.9          221400 
         3174.2          235200 
         3174.5          245500 
         3174.8          251700 
         3175.1          255900 
         3175.4          260100 
         3175.7          264200 
           3176          265200 
         3176.3          259200 
         3176.6          243900 
         3176.9          220800 
         3177.2          193900 
         3177.5          169300 
         3177.8          150800 
         3178.1          139100 
