# Granada HRES Library
# atmosphere = Phoenix  (atmosphere model used)
# feh = -10  (value for [Fe/H] for the model.)
# logg = 2.5 log(cm/s2) (value for Log(G) for the model.)
# teff = 4000 K (value for the effective temperature for the model. Temperatures are given in K)
#
# column 1: WAVELENGTH (ANGSTROM), Wavelength in Angstrom
# column 2: FLUX (ERG/CM2/S/A), Flux in erg/cm2/s/A
         3000.2            1826 
         3000.5            1672 
         3000.8            1567 
         3001.1            1506 
         3001.4            1469 
         3001.7            1433 
           3002            1389 
         3002.3            1354 
         3002.6            1372 
         3002.9            1491 
         3003.2            1750 
         3003.5            2153 
         3003.8            2676 
         3004.1            3265 
         3004.4            3855 
         3004.7            4384 
           3005            4801 
         3005.3            5068 
         3005.6            5157 
         3005.9            5048 
         3006.2            4752 
         3006.5            4305 
         3006.8            3778 
         3007.1            3261 
         3007.4            2833 
         3007.7            2556 
           3008            2455 
         3008.3            2525 
         3008.6            2745 
         3008.9            3093 
         3009.2            3547 
         3009.5            4073 
         3009.8            4608 
         3010.1            5053 
         3010.4            5314 
         3010.7            5340 
           3011            5165 
         3011.3            4897 
         3011.6            4673 
         3011.9            4585 
         3012.2            4644 
         3012.5            4782 
         3012.8            4901 
         3013.1            4926 
         3013.4            4842 
         3013.7            4682 
           3014            4499 
         3014.3            4343 
         3014.6            4241 
         3014.9            4198 
         3015.2            4201 
         3015.5            4227 
         3015.8            4252 
         3016.1            4257 
         3016.4            4222 
         3016.7            4131 
           3017            3981 
         3017.3            3783 
         3017.6            3562 
         3017.9            3339 
         3018.2            3115 
         3018.5            2877 
         3018.8            2610 
         3019.1            2313 
         3019.4            1994 
         3019.7            1675 
           3020            1390 
         3020.3            1174 
         3020.6            1068 
         3020.9            1100 
         3021.2            1280 
         3021.5            1588 
         3021.8            1982 
         3022.1            2396 
         3022.4            2760 
         3022.7            3014 
           3023            3121 
         3023.3            3083 
         3023.6            2941 
         3023.9            2759 
         3024.2            2593 
         3024.5            2467 
         3024.8            2377 
         3025.1            2308 
         3025.4            2262 
         3025.7            2270 
           3026            2369 
         3026.3            2575 
         3026.6            2865 
         3026.9            3193 
         3027.2            3509 
         3027.5            3799 
         3027.8            4084 
         3028.1            4402 
         3028.4            4776 
         3028.7            5178 
           3029            5540 
         3029.3            5774 
         3029.6            5815 
         3029.9            5658 
         3030.2            5374 
         3030.5            5093 
         3030.8            4978 
         3031.1            5163 
         3031.4            5700 
         3031.7            6504 
           3032            7361 
         3032.3            8001 
         3032.6            8203 
         3032.9            7898 
         3033.2            7195 
         3033.5            6329 
         3033.8            5553 
         3034.1            5053 
         3034.4            4883 
         3034.7            4965 
           3035            5142 
         3035.3            5242 
         3035.6            5154 
         3035.9            4845 
         3036.2            4363 
         3036.5            3807 
         3036.8            3291 
         3037.1            2917 
         3037.4            2752 
         3037.7            2813 
           3038            3063 
         3038.3            3432 
         3038.6            3843 
         3038.9            4234 
         3039.2            4562 
         3039.5            4792 
         3039.8            4893 
         3040.1            4845 
         3040.4            4652 
         3040.7            4352 
           3041            4017 
         3041.3            3735 
         3041.6            3590 
         3041.9            3641 
         3042.2            3896 
         3042.5            4314 
         3042.8            4817 
         3043.1            5321 
         3043.4            5763 
         3043.7            6106 
           3044            6335 
         3044.3            6452 
         3044.6            6473 
         3044.9            6422 
         3045.2            6314 
         3045.5            6141 
         3045.8            5869 
         3046.1            5461 
         3046.4            4909 
         3046.7            4260 
           3047            3613 
         3047.3            3081 
         3047.6            2760 
         3047.9            2701 
         3048.2            2904 
         3048.5            3319 
         3048.8            3853 
         3049.1            4381 
         3049.4            4776 
         3049.7            4954 
           3050            4912 
         3050.3            4735 
         3050.6            4553 
         3050.9            4489 
         3051.2            4601 
         3051.5            4871 
         3051.8            5215 
         3052.1            5517 
         3052.4            5663 
         3052.7            5582 
           3053            5274 
         3053.3            4813 
         3053.6            4315 
         3053.9            3901 
         3054.2            3648 
         3054.5            3578 
         3054.8            3659 
         3055.1            3816 
         3055.4            3965 
         3055.7            4034 
           3056            3991 
         3056.3            3840 
         3056.6            3619 
         3056.9            3376 
         3057.2            3155 
         3057.5            2975 
         3057.8            2832 
         3058.1            2712 
         3058.4            2612 
         3058.7            2563 
           3059            2623 
         3059.3            2856 
         3059.6            3299 
         3059.9            3940 
         3060.2            4715 
         3060.5            5527 
         3060.8            6286 
         3061.1            6917 
         3061.4            7383 
         3061.7            7651 
           3062            7682 
         3062.3            7421 
         3062.6            6836 
         3062.9            5962 
         3063.2            4928 
         3063.5            3914 
         3063.8            3094 
         3064.1            2567 
         3064.4            2334 
         3064.7            2320 
           3065            2413 
         3065.3            2518 
         3065.6            2579 
         3065.9            2594 
         3066.2            2589 
         3066.5            2604 
         3066.8            2663 
         3067.1            2777 
         3067.4            2952 
         3067.7            3190 
           3068            3481 
         3068.3            3796 
         3068.6            4078 
         3068.9            4263 
         3069.2            4318 
         3069.5            4279 
         3069.8            4260 
         3070.1            4423 
         3070.4            4898 
         3070.7            5715 
           3071            6763 
         3071.3            7838 
         3071.6            8726 
         3071.9            9304 
         3072.2            9572 
         3072.5            9612 
         3072.8            9525 
         3073.1            9388 
         3073.4            9248 
         3073.7            9125 
           3074            9015 
         3074.3            8896 
         3074.6            8767 
         3074.9            8687 
         3075.2            8792 
         3075.5            9234 
         3075.8           10070 
         3076.1           11180 
         3076.4           12300 
         3076.7           13100 
           3077           13380 
         3077.3           13090 
         3077.6           12390 
         3077.9           11490 
         3078.2           10640 
         3078.5            9931 
         3078.8            9373 
         3079.1            8857 
         3079.4            8261 
         3079.7            7524 
           3080            6665 
         3080.3            5758 
         3080.6            4899 
         3080.9            4172 
         3081.2            3640 
         3081.5            3339 
         3081.8            3270 
         3082.1            3388 
         3082.4            3615 
         3082.7            3872 
           3083            4123 
         3083.3            4389 
         3083.6            4724 
         3083.9            5167 
         3084.2            5709 
         3084.5            6295 
         3084.8            6857 
         3085.1            7326 
         3085.4            7635 
         3085.7            7733 
           3086            7626 
         3086.3            7417 
         3086.6            7302 
         3086.9            7505 
         3087.2            8176 
         3087.5            9307 
         3087.8           10690 
         3088.1           11940 
         3088.4           12630 
         3088.7           12470 
           3089           11430 
         3089.3            9748 
         3089.6            7853 
         3089.9            6135 
         3090.2            4818 
         3090.5            3930 
         3090.8            3372 
         3091.1            3015 
         3091.4            2757 
         3091.7            2553 
           3092            2410 
         3092.3            2370 
         3092.6            2484 
         3092.9            2781 
         3093.2            3238 
         3093.5            3781 
         3093.8            4306 
         3094.1            4721 
         3094.4            4969 
         3094.7            5034 
           3095            4931 
         3095.3            4697 
         3095.6            4400 
         3095.9            4148 
         3096.2            4076 
         3096.5            4311 
         3096.8            4902 
         3097.1            5762 
         3097.4            6666 
         3097.7            7325 
           3098            7499 
         3098.3            7112 
         3098.6            6274 
         3098.9            5227 
         3099.2            4235 
         3099.5            3489 
         3099.8            3064 
         3100.1            2925 
         3100.4            2971 
         3100.7            3094 
           3101            3232 
         3101.3            3659 
         3101.6            4116 
         3101.9            4823 
         3102.2            5770 
         3102.5            6885 
         3102.8            8067 
         3103.1            9226 
         3103.4           10280 
         3103.7           11110 
           3104           11590 
         3104.3           11550 
         3104.6           10930 
         3104.9            9790 
         3105.2            8341 
         3105.5            6892 
         3105.8            5714 
         3106.1            4965 
         3106.4            4682 
         3106.7            4806 
           3107            5219 
         3107.3            5775 
         3107.6            6321 
         3107.9            6735 
         3108.2            6959 
         3108.5            7035 
         3108.8            7110 
         3109.1            7392 
         3109.4            8088 
         3109.7            9321 
           3110           11060 
         3110.3           13090 
         3110.6           15070 
         3110.9           16630 
         3111.2           17470 
         3111.5           17520 
         3111.8           16910 
         3112.1           15860 
         3112.4           14660 
         3112.7           13550 
           3113           12870 
         3113.3           12960 
         3113.6           14120 
         3113.9           16440 
         3114.2           19710 
         3114.5           23340 
         3114.8           26520 
         3115.1           28420 
         3115.4           28510 
         3115.7           26710 
           3116           23400 
         3116.3           19370 
         3116.6           15480 
         3116.9           12450 
         3117.2           10680 
         3117.5           10140 
         3117.8           10500 
         3118.1           11310 
         3118.4           12150 
         3118.7           12800 
           3119           13240 
         3119.3           13670 
         3119.6           14330 
         3119.9           15280 
         3120.2           16280 
         3120.5           16890 
         3120.8           16620 
         3121.1           15310 
         3121.4           13180 
         3121.7           10840 
           3122            8957 
         3122.3            8017 
         3122.6            8175 
         3122.9            9262 
         3123.2           10880 
         3123.5           12520 
         3123.8           13790 
         3124.1           14420 
         3124.4           14450 
         3124.7           14120 
           3125           13800 
         3125.3           13800 
         3125.6           14320 
         3125.9           15340 
         3126.2           16680 
         3126.5           17920 
         3126.8           18560 
         3127.1           18160 
         3127.4           16610 
         3127.7           14190 
           3128           11500 
         3128.3            9090 
         3128.6            7349 
         3128.9            6361 
         3129.2            6010 
         3129.5            6101 
         3129.8            6475 
         3130.1            7056 
         3130.4            7824 
         3130.7            8748 
           3131            9720 
         3131.3           10530 
         3131.6           10960 
         3131.9           10840 
         3132.2           10190 
         3132.5            9206 
         3132.8            8185 
         3133.1            7448 
         3133.4            7261 
         3133.7            7785 
           3134            9025 
         3134.3           10750 
         3134.6           12520 
         3134.9           13790 
         3135.2           14220 
         3135.5           13810 
         3135.8           12960 
         3136.1           12260 
         3136.4           12320 
         3136.7           13520 
           3137           15880 
         3137.3           19060 
         3137.6           22430 
         3137.9           25230 
         3138.2           26910 
         3138.5           27290 
         3138.8           26560 
         3139.1           25170 
         3139.4           23550 
         3139.7           22050 
           3140           20880 
         3140.3           20100 
         3140.6           19640 
         3140.9           19330 
         3141.2           19060 
         3141.5           18760 
         3141.8           18440 
         3142.1           18030 
         3142.4           17370 
         3142.7           16280 
           3143           14750 
         3143.3           13020 
         3143.6           11400 
         3143.9           10170 
         3144.2            9441 
         3144.5            9166 
         3144.8            9248 
         3145.1            9557 
         3145.4            9929 
         3145.7           10160 
           3146           10110 
         3146.3            9790 
         3146.6            9445 
         3146.9            9529 
         3147.2           10550 
         3147.5           12920 
         3147.8           16690 
         3148.1           21430 
         3148.4           26210 
         3148.7           29860 
           3149           31380 
         3149.3           30490 
         3149.6           27670 
         3149.9           23930 
         3150.2           20240 
         3150.5           17200 
         3150.8           14960 
         3151.1           13350 
         3151.4           12150 
         3151.7           11250 
           3152           10650 
         3152.3           10390 
         3152.6           10430 
         3152.9           10710 
         3153.2           11180 
         3153.5           11920 
         3153.8           13140 
         3154.1           14960 
         3154.4           17250 
         3154.7           19500 
           3155           21020 
         3155.3           21260 
         3155.6           20150 
         3155.9           18090 
         3156.2           15780 
         3156.5           13930 
         3156.8           12890 
         3157.1           12740 
         3157.4           13270 
         3157.7           14180 
           3158           15170 
         3158.3           16060 
         3158.6           16750 
         3158.9           17110 
         3159.2           17020 
         3159.5           16370 
         3159.8           15220 
         3160.1           13830 
         3160.4           12670 
         3160.7           12230 
           3161           12940 
         3161.3           15040 
         3161.6           18600 
         3161.9           23450 
         3162.2           29060 
         3162.5           34470 
         3162.8           38500 
         3163.1           40120 
         3163.4           39010 
         3163.7           35690 
           3164           31340 
         3164.3           27200 
         3164.6           24110 
         3164.9           22420 
         3165.2           22170 
         3165.5           23310 
         3165.8           25900 
         3166.1           29910 
         3166.4           35040 
         3166.7           40520 
           3167           45230 
         3167.3           47990 
         3167.6           48170 
         3167.9           45930 
         3168.2           42270 
         3168.5           38680 
         3168.8           36430 
         3169.1           36100 
         3169.4           37430 
         3169.7           39640 
           3170           41880 
         3170.3           43720 
         3170.6           45250 
         3170.9           46890 
         3171.2           49010 
         3171.5           51580 
         3171.8           53930 
         3172.1           55160 
         3172.4           54660 
         3172.7           52730 
           3173           50670 
         3173.3           50170 
         3173.6           52430 
         3173.9           57520 
         3174.2           64600 
         3174.5           72520 
         3174.8           80380 
         3175.1           87640 
         3175.4           93660 
         3175.7           97450 
           3176           97840 
         3176.3           94110 
         3176.6           86530 
         3176.9           76610 
         3177.2           66710 
         3177.5           59070 
         3177.8           54870 
         3178.1           53640 
