# Granada HRES Library
# atmosphere = Phoenix  (atmosphere model used)
# feh = -5  (value for [Fe/H] for the model.)
# logg = 3.5 log(cm/s2) (value for Log(G) for the model.)
# teff = 4500 K (value for the effective temperature for the model. Temperatures are given in K)
#
# column 1: WAVELENGTH (ANGSTROM), Wavelength in Angstrom
# column 2: FLUX (ERG/CM2/S/A), Flux in erg/cm2/s/A
         3000.2           15710 
         3000.5           14780 
         3000.8           14080 
         3001.1           13620 
         3001.4           13300 
         3001.7           12960 
           3002           12570 
         3002.3           12320 
         3002.6           12590 
         3002.9           13850 
         3003.2           16390 
         3003.5           20230 
         3003.8           25060 
         3004.1           30370 
         3004.4           35590 
         3004.7           40210 
           3005           43800 
         3005.3           46030 
         3005.6           46550 
         3005.9           45190 
         3006.2           41990 
         3006.5           37400 
         3006.8           32120 
         3007.1           27040 
         3007.4           22910 
         3007.7           20210 
           3008           19080 
         3008.3           19410 
         3008.6           20960 
         3008.9           23460 
         3009.2           26710 
         3009.5           30470 
         3009.8           34300 
         3010.1           37600 
         3010.4           39730 
         3010.7           40320 
           3011           39590 
         3011.3           38300 
         3011.6           37420 
         3011.9           37700 
         3012.2           39250 
         3012.5           41510 
         3012.8           43540 
         3013.1           44580 
         3013.4           44260 
         3013.7           42760 
           3014           40560 
         3014.3           38210 
         3014.6           36080 
         3014.9           34380 
         3015.2           33150 
         3015.5           32310 
         3015.8           31790 
         3016.1           31480 
         3016.4           31200 
         3016.7           30730 
           3017           29880 
         3017.3           28650 
         3017.6           27120 
         3017.9           25470 
         3018.2           23750 
         3018.5           21930 
         3018.8           19960 
         3019.1           17800 
         3019.4           15510 
         3019.7           13210 
           3020           11130 
         3020.3            9530 
         3020.6            8745 
         3020.9            9009 
         3021.2           10400 
         3021.5           12770 
         3021.8           15770 
         3022.1           18910 
         3022.4           21630 
         3022.7           23480 
           3023           24240 
         3023.3           23960 
         3023.6           22990 
         3023.9           21830 
         3024.2           20850 
         3024.5           20180 
         3024.8           19690 
         3025.1           19280 
         3025.4           19050 
         3025.7           19380 
           3026           20790 
         3026.3           23630 
         3026.6           27940 
         3026.9           33460 
         3027.2           39740 
         3027.5           46380 
         3027.8           52880 
         3028.1           58640 
         3028.4           62940 
         3028.7           65030 
           3029           64450 
         3029.3           61260 
         3029.6           56090 
         3029.9           49960 
         3030.2           44110 
         3030.5           39860 
         3030.8           38450 
         3031.1           40880 
         3031.4           47500 
         3031.7           57600 
           3032           69280 
         3032.3           79860 
         3032.6           86740 
         3032.9           88430 
         3033.2           85070 
         3033.5           78260 
         3033.8           70320 
         3034.1           63420 
         3034.4           58660 
         3034.7           55950 
           3035           54210 
         3035.3           52130 
         3035.6           48790 
         3035.9           43990 
         3036.2           38220 
         3036.5           32260 
         3036.8           26980 
         3037.1           23080 
         3037.4           20960 
         3037.7           20690 
           3038           22030 
         3038.3           24520 
         3038.6           27630 
         3038.9           30900 
         3039.2           33920 
         3039.5           36250 
         3039.8           37510 
         3040.1           37490 
         3040.4           36240 
         3040.7           34040 
           3041           31390 
         3041.3           28890 
         3041.6           27170 
         3041.9           26820 
         3042.2           28210 
         3042.5           31380 
         3042.8           36050 
         3043.1           41670 
         3043.4           47610 
         3043.7           53120 
           3044           57450 
         3044.3           59970 
         3044.6           60350 
         3044.9           58730 
         3045.2           55600 
         3045.5           51520 
         3045.8           46870 
         3046.1           41810 
         3046.4           36480 
         3046.7           31190 
           3047           26470 
         3047.3           22960 
         3047.6           21200 
         3047.9           21400 
         3048.2           23430 
         3048.5           26840 
         3048.8           30880 
         3049.1           34660 
         3049.4           37330 
         3049.7           38450 
           3050           38180 
         3050.3           37370 
         3050.6           37200 
         3050.9           38680 
         3051.2           42230 
         3051.5           47430 
         3051.8           53130 
         3052.1           57760 
         3052.4           59910 
         3052.7           58780 
           3053           54590 
         3053.3           48460 
         3053.6           41980 
         3053.9           36660 
         3054.2           33440 
         3054.5           32660 
         3054.8           34020 
         3055.1           36700 
         3055.4           39590 
         3055.7           41560 
           3056           41790 
         3056.3           40040 
         3056.6           36660 
         3056.9           32440 
         3057.2           28240 
         3057.5           24670 
         3057.8           22000 
         3058.1           20190 
         3058.4           19120 
         3058.7           18880 
           3059           19780 
         3059.3           22200 
         3059.6           26410 
         3059.9           32380 
         3060.2           39730 
         3060.5           47880 
         3060.8           56300 
         3061.1           64600 
         3061.4           72520 
         3061.7           79660 
           3062           85160 
         3062.3           87660 
         3062.6           85830 
         3062.9           79230 
         3063.2           68800 
         3063.5           56780 
         3063.8           45880 
         3064.1           38200 
         3064.4           34610 
         3064.7           34540 
           3065           36460 
         3065.3           38480 
         3065.6           39110 
         3065.9           37760 
         3066.2           34840 
         3066.5           31410 
         3066.8           28730 
         3067.1           27790 
         3067.4           29160 
         3067.7           32950 
           3068           38830 
         3068.3           45930 
         3068.6           52990 
         3068.9           58660 
         3069.2           62110 
         3069.5           63670 
         3069.8           64870 
         3070.1           67840 
         3070.4           74220 
         3070.7           84060 
           3071           95590 
         3071.3          106000 
         3071.6          112800 
         3071.9          115200 
         3072.2          114000 
         3072.5          110600 
         3072.8          106500 
         3073.1          102100 
         3073.4           97500 
         3073.7           92780 
           3074           88010 
         3074.3           83360 
         3074.6           79210 
         3074.9           76280 
         3075.2           75860 
         3075.5           79320 
         3075.8           87150 
         3076.1           98140 
         3076.4          109400 
         3076.7          117500 
           3077          120000 
         3077.3          116600 
         3077.6          109100 
         3077.9          100600 
         3078.2           93980 
         3078.5           90780 
         3078.8           90600 
         3079.1           91570 
         3079.4           91360 
         3079.7           88210 
           3080           81500 
         3080.3           71890 
         3080.6           60850 
         3080.9           50140 
         3081.2           41320 
         3081.5           35360 
         3081.8           32530 
         3082.1           32470 
         3082.4           34490 
         3082.7           37950 
           3083           42610 
         3083.3           48670 
         3083.6           56420 
         3083.9           65770 
         3084.2           75990 
         3084.5           85960 
         3084.8           94560 
         3085.1          100900 
         3085.4          104100 
         3085.7          103900 
           3086          100200 
         3086.3           94350 
         3086.6           88390 
         3086.9           84690 
         3087.2           84890 
         3087.5           89250 
         3087.8           96330 
         3088.1          103400 
         3088.4          107200 
         3088.7          105400 
           3089           97420 
         3089.3           84970 
         3089.6           71010 
         3089.9           58320 
         3090.2           48350 
         3090.5           41070 
         3090.8           35630 
         3091.1           31110 
         3091.4           27050 
         3091.7           23440 
           3092           20620 
         3092.3           19040 
         3092.6           19140 
         3092.9           21110 
         3093.2           24770 
         3093.5           29570 
         3093.8           34700 
         3094.1           39330 
         3094.4           42770 
         3094.7           44540 
           3095           44500 
         3095.3           42820 
         3095.6           40060 
         3095.9           37090 
         3096.2           35020 
         3096.5           34820 
         3096.8           36960 
         3097.1           41110 
         3097.4           46030 
         3097.7           49950 
           3098           51290 
         3098.3           49290 
         3098.6           44350 
         3098.9           37760 
         3099.2           31100 
         3099.5           25670 
         3099.8           22160 
         3100.1           20580 
         3100.4           20470 
         3100.7           21290 
           3101           22710 
         3101.3           28370 
         3101.6           33870 
         3101.9           41770 
         3102.2           51870 
         3102.5           63450 
         3102.8           75640 
         3103.1           87650 
         3103.4           98780 
         3103.7          108000 
           3104          113900 
         3104.3          114800 
         3104.6          109700 
         3104.9           99590 
         3105.2           87010 
         3105.5           75460 
         3105.8           67830 
         3106.1           65350 
         3106.4           67510 
         3106.7           72480 
           3107           78080 
         3107.3           82470 
         3107.6           84560 
         3107.9           84150 
         3108.2           82060 
         3108.5           79850 
         3108.8           79550 
         3109.1           83030 
         3109.4           91460 
         3109.7          105000 
           3110          122600 
         3110.3          142700 
         3110.6          163100 
         3110.9          181900 
         3111.2          197100 
         3111.5          207100 
         3111.8          210600 
         3112.1          206700 
         3112.4          195900 
         3112.7          180500 
           3113          165100 
         3113.3          155700 
         3113.6          157700 
         3113.9          173800 
         3114.2          201900 
         3114.5          235600 
         3114.8          265900 
         3115.1          283600 
         3115.4          283000 
         3115.7          263400 
           3116          228900 
         3116.3          187300 
         3116.6          147100 
         3116.9          115200 
         3117.2           94470 
         3117.5           84650 
         3117.8           82560 
         3118.1           84280 
         3118.4           86610 
         3118.7           88100 
           3119           89260 
         3119.3           91810 
         3119.6           97440 
         3119.9          106300 
         3120.2          116000 
         3120.5          122600 
         3120.8          122500 
         3121.1          114600 
         3121.4          100500 
         3121.7           84770 
           3122           72250 
         3122.3           66690 
         3122.6           69670 
         3122.9           80450 
         3123.2           96200 
         3123.5          112800 
         3123.8          125800 
         3124.1          132400 
         3124.4          132300 
         3124.7          128000 
           3125          123600 
         3125.3          123400 
         3125.6          130100 
         3125.9          143500 
         3126.2          160600 
         3126.5          175600 
         3126.8          182800 
         3127.1          178000 
         3127.4          161600 
         3127.7          138200 
           3128          114900 
         3128.3           97540 
         3128.6           88970 
         3128.9           88190 
         3129.2           91790 
         3129.5           95840 
         3129.8           97600 
         3130.1           96280 
         3130.4           92670 
         3130.7           88240 
           3131           84140 
         3131.3           80720 
         3131.6           77600 
         3131.9           74070 
         3132.2           69630 
         3132.5           64340 
         3132.8           58990 
         3133.1           55070 
         3133.4           54550 
         3133.7           59200 
           3134           69650 
         3134.3           84590 
         3134.6          100600 
         3134.9          113600 
         3135.2          120300 
         3135.5          120000 
         3135.8          115200 
         3136.1          110000 
         3136.4          108300 
         3136.7          112500 
           3137          123300 
         3137.3          139100 
         3137.6          157600 
         3137.9          175600 
         3138.2          190400 
         3138.5          200100 
         3138.8          203700 
         3139.1          201600 
         3139.4          194800 
         3139.7          185500 
           3140          176300 
         3140.3          168700 
         3140.6          162900 
         3140.9          157700 
         3141.2          151800 
         3141.5          144900 
         3141.8          137600 
         3142.1          130400 
         3142.4          122900 
         3142.7          114000 
           3143          103000 
         3143.3           90680 
         3143.6           78960 
         3143.9           70750 
         3144.2           68560 
         3144.5           73880 
         3144.8           86690 
         3145.1          104900 
         3145.4          124200 
         3145.7          139000 
           3146          144700 
         3146.3          140200 
         3146.6          128600 
         3146.9          116400 
         3147.2          110900 
         3147.5          117500 
         3147.8          138100 
         3148.1          170000 
         3148.4          206600 
         3148.7          239500 
           3149          260900 
         3149.3          267200 
         3149.6          259600 
         3149.9          242500 
         3150.2          221200 
         3150.5          200200 
         3150.8          181800 
         3151.1          166200 
         3151.4          153500 
         3151.7          143900 
           3152          137600 
         3152.3          135000 
         3152.6          135500 
         3152.9          137300 
         3153.2          138400 
         3153.5          137900 
         3153.8          137100 
         3154.1          138200 
         3154.4          143000 
         3154.7          150300 
           3155          156700 
         3155.3          157900 
         3155.6          151700 
         3155.9          138500 
         3156.2          121800 
         3156.5          105600 
         3156.8           93280 
         3157.1           86290 
         3157.4           84350 
         3157.7           86080 
           3158           89870 
         3158.3           94250 
         3158.6           98180 
         3158.9          100700 
         3159.2          101200 
         3159.5           99310 
         3159.8           95090 
         3160.1           89670 
         3160.4           84800 
         3160.7           82580 
           3161           85100 
         3161.3           94110 
         3161.6          110500 
         3161.9          133700 
         3162.2          160700 
         3162.5          186400 
         3162.8          204400 
         3163.1          209600 
         3163.4          200600 
         3163.7          180500 
           3164          155700 
         3164.3          132700 
         3164.6          116600 
         3164.9          109900 
         3165.2          113100 
         3165.5          126000 
         3165.8          147800 
         3166.1          176400 
         3166.4          207900 
         3166.7          236300 
           3167          255400 
         3167.3          260900 
         3167.6          251900 
         3167.9          232200 
         3168.2          208400 
         3168.5          188000 
         3168.8          177100 
         3169.1          178200 
         3169.4          190400 
         3169.7          210900 
           3170          236000 
         3170.3          263600 
         3170.6          292400 
         3170.9          322300 
         3171.2          352100 
         3171.5          379100 
         3171.8          398000 
         3172.1          404000 
         3172.4          395400 
         3172.7          376600 
           3173          356900 
         3173.3          346000 
         3173.6          348900 
         3173.9          364000 
         3174.2          385900 
         3174.5          408800 
         3174.8          430800 
         3175.1          452200 
         3175.4          472500 
         3175.7          487900 
           3176          492000 
         3176.3          478700 
         3176.6          445800 
         3176.9          398300 
         3177.2          346100 
         3177.5          300500 
         3177.8          269100 
         3178.1          252300 
