# Granada HRES Library
# atmosphere = Phoenix  (atmosphere model used)
# feh = -5  (value for [Fe/H] for the model.)
# logg = 0 log(cm/s2) (value for Log(G) for the model.)
# teff = 4000 K (value for the effective temperature for the model. Temperatures are given in K)
#
# column 1: WAVELENGTH (ANGSTROM), Wavelength in Angstrom
# column 2: FLUX (ERG/CM2/S/A), Flux in erg/cm2/s/A
         3000.2           101.8 
         3000.5           87.47 
         3000.8           78.28 
         3001.1           73.58 
         3001.4           71.72 
         3001.7           70.86 
           3002           70.09 
         3002.3           70.33 
         3002.6           74.25 
         3002.9           85.43 
         3003.2           106.9 
         3003.5           140.3 
         3003.8           184.3 
         3004.1           235.8 
         3004.4           289.6 
         3004.7           339.6 
           3005           380.2 
         3005.3           406.4 
         3005.6           414.7 
         3005.9           403.3 
         3006.2           373.7 
         3006.5           330.4 
         3006.8           280.5 
         3007.1           232.3 
         3007.4           193.1 
         3007.7           168.5 
           3008             161 
         3008.3             171 
         3008.6           196.5 
         3008.9           235.3 
         3009.2             284 
         3009.5           337.9 
         3009.8           389.7 
         3010.1           429.7 
         3010.4           449.7 
         3010.7           446.3 
           3011           424.7 
         3011.3           396.5 
         3011.6           375.1 
         3011.9           369.6 
         3012.2           380.4 
         3012.5           399.7 
         3012.8           416.6 
         3013.1           422.1 
         3013.4           413.3 
         3013.7           393.7 
           3014           370.4 
         3014.3           351.2 
         3014.6           341.2 
         3014.9             341 
         3015.2           347.6 
         3015.5             356 
         3015.8           361.3 
         3016.1           360.7 
         3016.4           352.9 
         3016.7           337.4 
           3017           315.1 
         3017.3             288 
         3017.6           259.1 
         3017.9           231.2 
         3018.2           204.9 
         3018.5           179.9 
         3018.8           155.2 
         3019.1           130.4 
         3019.4           106.4 
         3019.7           84.57 
           3020            66.6 
         3020.3           54.11 
         3020.6           48.54 
         3020.9           50.85 
         3021.2           61.31 
         3021.5           79.14 
         3021.8           102.3 
         3022.1           127.5 
         3022.4             151 
         3022.7           168.7 
           3023           177.7 
         3023.3           177.4 
         3023.6           169.7 
         3023.9             158 
         3024.2           146.2 
         3024.5           136.5 
         3024.8           129.4 
         3025.1           124.7 
         3025.4           122.8 
         3025.7           125.7 
           3026           135.3 
         3026.3           152.4 
         3026.6           175.6 
         3026.9           201.8 
         3027.2           228.3 
         3027.5           254.1 
         3027.8           280.7 
         3028.1           311.6 
         3028.4           349.5 
         3028.7           393.8 
           3029           439.5 
         3029.3           477.7 
         3029.6           499.1 
         3029.9           499.3 
         3030.2           481.4 
         3030.5           457.3 
         3030.8           443.4 
         3031.1             455 
         3031.4           498.6 
         3031.7           568.3 
           3032             646 
         3032.3           708.8 
         3032.6           738.4 
         3032.9             728 
         3033.2           683.8 
         3033.5           620.8 
         3033.8           556.5 
         3034.1           504.7 
         3034.4           472.1 
         3034.7           456.6 
           3035           449.4 
         3035.3             439 
         3035.6           416.3 
         3035.9           378.4 
         3036.2           328.8 
         3036.5             275 
         3036.8           226.3 
         3037.1           190.5 
         3037.4           172.9 
         3037.7           174.8 
           3038           194.2 
         3038.3           226.6 
         3038.6           267.2 
         3038.9           312.2 
         3039.2           358.7 
         3039.5           403.4 
         3039.8           442.9 
         3040.1           473.2 
         3040.4           491.3 
         3040.7           496.2 
           3041           490.2 
         3041.3           479.1 
         3041.6           471.2 
         3041.9             474 
         3042.2           490.4 
         3042.5           516.1 
         3042.8           542.6 
         3043.1             562 
         3043.4           571.3 
         3043.7           573.5 
           3044           573.7 
         3044.3             576 
         3044.6           580.5 
         3044.9             584 
         3045.2           580.5 
         3045.5           563.8 
         3045.8           529.1 
         3046.1           475.7 
         3046.4           407.5 
         3046.7           333.1 
           3047           263.5 
         3047.3           208.8 
         3047.6           176.5 
         3047.9           169.8 
         3048.2           187.9 
         3048.5           225.8 
         3048.8           275.1 
         3049.1           324.1 
         3049.4           361.1 
         3049.7           377.4 
           3050             372 
         3050.3           351.4 
         3050.6           327.3 
         3050.9           311.4 
         3051.2           310.5 
         3051.5           324.9 
         3051.8             349 
         3052.1           373.9 
         3052.4           389.9 
         3052.7           390.3 
           3053           374.3 
         3053.3           346.7 
         3053.6           316.3 
         3053.9           291.3 
         3054.2           276.7 
         3054.5           273.1 
         3054.8           276.9 
         3055.1           282.4 
         3055.4           284.5 
         3055.7           279.6 
           3056           267.4 
         3056.3           249.8 
         3056.6           230.1 
         3056.9           211.4 
         3057.2           195.6 
         3057.5             183 
         3057.8           172.4 
         3058.1           162.8 
         3058.4           154.5 
         3058.7           150.7 
           3059           156.8 
         3059.3           178.8 
         3059.6           220.4 
         3059.9           281.5 
         3060.2             357 
         3060.5           438.3 
         3060.8           515.7 
         3061.1             581 
         3061.4           628.6 
         3061.7           655.2 
           3062           657.9 
         3062.3           634.2 
         3062.6           584.1 
         3062.9           513.6 
         3063.2           435.5 
         3063.5           365.4 
         3063.8           316.1 
         3064.1           292.5 
         3064.4           290.3 
         3064.7           299.5 
           3065           309.6 
         3065.3           314.5 
         3065.6           314.2 
         3065.9           313.3 
         3066.2             318 
         3066.5           333.2 
         3066.8           362.3 
         3067.1           409.2 
         3067.4           479.3 
         3067.7           577.3 
           3068           702.3 
         3068.3           840.5 
         3068.6           965.6 
         3068.9            1046 
         3069.2            1060 
         3069.5            1006 
         3069.8           904.8 
         3070.1           792.5 
         3070.4           702.4 
         3070.7           655.3 
           3071           654.8 
         3071.3           691.6 
         3071.6           750.4 
         3071.9           815.7 
         3072.2           875.9 
         3072.5             923 
         3072.8           952.5 
         3073.1           963.4 
         3073.4           957.8 
         3073.7           939.1 
           3074           910.4 
         3074.3           875.1 
         3074.6           840.8 
         3074.9           821.8 
         3075.2           836.8 
         3075.5             901 
         3075.8            1014 
         3076.1            1154 
         3076.4            1282 
         3076.7            1360 
           3077            1365 
         3077.3            1301 
         3077.6            1190 
         3077.9            1065 
         3078.2           950.9 
         3078.5           863.6 
         3078.8           804.5 
         3079.1           765.4 
         3079.4           734.6 
         3079.7           700.8 
           3080           656.8 
         3080.3           601.5 
         3080.6           540.4 
         3080.9           484.5 
         3081.2           446.6 
         3081.5           436.7 
         3081.8           457.4 
         3082.1           500.9 
         3082.4           551.5 
         3082.7           591.9 
           3083           612.1 
         3083.3           615.6 
         3083.6           618.3 
         3083.9           641.1 
         3084.2           698.8 
         3084.5             794 
         3084.8           914.9 
         3085.1            1039 
         3085.4            1144 
         3085.7            1215 
           3086            1253 
         3086.3            1273 
         3086.6            1294 
         3086.9            1328 
         3087.2            1375 
         3087.5            1429 
         3087.8            1476 
         3088.1            1498 
         3088.4            1476 
         3088.7            1399 
           3089            1276 
         3089.3            1138 
         3089.6            1019 
         3089.9             938 
         3090.2           889.8 
         3090.5           849.6 
         3090.8           791.1 
         3091.1           703.3 
         3091.4           594.9 
         3091.7           487.6 
           3092           403.9 
         3092.3           359.4 
         3092.6           358.9 
         3092.9           396.9 
         3093.2           459.2 
         3093.5             527 
         3093.8           582.6 
         3094.1             615 
         3094.4           623.1 
         3094.7           614.1 
           3095           598.3 
         3095.3           585.5 
         3095.6           583.7 
         3095.9           602.5 
         3096.2           655.3 
         3096.5           757.8 
         3096.8           918.9 
         3097.1            1128 
         3097.4            1348 
         3097.7            1520 
           3098            1589 
         3098.3            1524 
         3098.6            1340 
         3098.9            1083 
         3099.2           817.2 
         3099.5           591.8 
         3099.8             432 
         3100.1           337.4 
         3100.4           292.4 
         3100.7           279.9 
           3101           291.6 
         3101.3             416 
         3101.6             560 
         3101.9           767.7 
         3102.2            1023 
         3102.5            1291 
         3102.8            1529 
         3103.1            1710 
         3103.4            1830 
         3103.7            1898 
           3104            1921 
         3104.3            1893 
         3104.6            1795 
         3104.9            1619 
         3105.2            1378 
         3105.5            1114 
         3105.8           874.3 
         3106.1           699.1 
         3106.4           609.6 
         3106.7           609.1 
           3107           689.8 
         3107.3             838 
         3107.6            1035 
         3107.9            1254 
         3108.2            1459 
         3108.5            1609 
         3108.8            1676 
         3109.1            1658 
         3109.4            1587 
         3109.7            1524 
           3110            1526 
         3110.3            1619 
         3110.6            1779 
         3110.9            1942 
         3111.2            2034 
         3111.5            2002 
         3111.8            1842 
         3112.1            1594 
         3112.4            1326 
         3112.7            1100 
           3113           964.8 
         3113.3           939.8 
         3113.6            1028 
         3113.9            1218 
         3114.2            1488 
         3114.5            1811 
         3114.8            2141 
         3115.1            2425 
         3115.4            2606 
         3115.7            2636 
           3116            2496 
         3116.3            2217 
         3116.6            1868 
         3116.9            1531 
         3117.2            1275 
         3117.5            1130 
         3117.8            1089 
         3118.1            1116 
         3118.4            1167 
         3118.7            1211 
           3119            1230 
         3119.3            1229 
         3119.6            1224 
         3119.9            1227 
         3120.2            1237 
         3120.5            1241 
         3120.8            1219 
         3121.1            1169 
         3121.4            1113 
         3121.7            1094 
           3122            1162 
         3122.3            1350 
         3122.6            1651 
         3122.9            2018 
         3123.2            2375 
         3123.5            2640 
         3123.8            2765 
         3124.1            2749 
         3124.4            2638 
         3124.7            2497 
           3125            2373 
         3125.3            2281 
         3125.6            2210 
         3125.9            2144 
         3126.2            2073 
         3126.5            2003 
         3126.8            1933 
         3127.1            1857 
         3127.4            1764 
         3127.7            1644 
           3128            1501 
         3128.3            1348 
         3128.6            1207 
         3128.9            1096 
         3129.2            1022 
         3129.5           982.8 
         3129.8           968.8 
         3130.1           978.6 
         3130.4            1021 
         3130.7            1105 
           3131            1229 
         3131.3            1369 
         3131.6            1484 
         3131.9            1533 
         3132.2            1495 
         3132.5            1377 
         3132.8            1220 
         3133.1            1074 
         3133.4           991.1 
         3133.7            1005 
           3134            1120 
         3134.3            1300 
         3134.6            1485 
         3134.9            1609 
         3135.2            1633 
         3135.5            1562 
         3135.8            1444 
         3136.1            1341 
         3136.4            1310 
         3136.7            1386 
           3137            1575 
         3137.3            1861 
         3137.6            2208 
         3137.9            2559 
         3138.2            2855 
         3138.5            3049 
         3138.8            3119 
         3139.1            3076 
         3139.4            2969 
         3139.7            2863 
           3140            2812 
         3140.3            2832 
         3140.6            2892 
         3140.9            2935 
         3141.2            2918 
         3141.5            2839 
         3141.8            2721 
         3142.1            2586 
         3142.4            2438 
         3142.7            2266 
           3143            2065 
         3143.3            1856 
         3143.6            1668 
         3143.9            1519 
         3144.2            1413 
         3144.5            1339 
         3144.8            1287 
         3145.1            1261 
         3145.4            1267 
         3145.7            1310 
           3146            1388 
         3146.3            1497 
         3146.6            1627 
         3146.9            1769 
         3147.2            1921 
         3147.5            2101 
         3147.8            2341 
         3148.1            2674 
         3148.4            3110 
         3148.7            3622 
           3149            4153 
         3149.3            4634 
         3149.6            5005 
         3149.9            5207 
         3150.2            5193 
         3150.5            4942 
         3150.8            4473 
         3151.1            3861 
         3151.4            3202 
         3151.7            2586 
           3152            2070 
         3152.3            1672 
         3152.6            1383 
         3152.9            1187 
         3153.2            1070 
         3153.5            1027 
         3153.8            1055 
         3154.1            1150 
         3154.4            1296 
         3154.7            1461 
           3155            1610 
         3155.3            1719 
         3155.6            1782 
         3155.9            1805 
         3156.2            1802 
         3156.5            1784 
         3156.8            1761 
         3157.1            1746 
         3157.4            1753 
         3157.7            1796 
           3158            1883 
         3158.3            2011 
         3158.6            2164 
         3158.9            2305 
         3159.2            2385 
         3159.5            2360 
         3159.8            2221 
         3160.1            1998 
         3160.4            1750 
         3160.7            1545 
           3161            1433 
         3161.3            1440 
         3161.6            1572 
         3161.9            1825 
         3162.2            2169 
         3162.5            2552 
         3162.8            2897 
         3163.1            3132 
         3163.4            3214 
         3163.7            3150 
           3164            2986 
         3164.3            2775 
         3164.6            2564 
         3164.9            2384 
         3165.2            2265 
         3165.5            2235 
         3165.8            2318 
         3166.1            2520 
         3166.4            2817 
         3166.7            3163 
           3167            3483 
         3167.3            3703 
         3167.6            3769 
         3167.9            3680 
         3168.2            3492 
         3168.5            3293 
         3168.8            3164 
         3169.1            3143 
         3169.4            3220 
         3169.7            3359 
           3170            3524 
         3170.3            3706 
         3170.6            3917 
         3170.9            4183 
         3171.2            4518 
         3171.5            4890 
         3171.8            5225 
         3172.1            5432 
         3172.4            5477 
         3172.7            5413 
           3173            5376 
         3173.3            5503 
         3173.6            5849 
         3173.9            6357 
         3174.2            6906 
         3174.5            7403 
         3174.8            7829 
         3175.1            8216 
         3175.4            8575 
         3175.7            8852 
           3176            8939 
         3176.3            8750 
         3176.6            8278 
         3176.9            7609 
         3177.2            6893 
         3177.5            6275 
         3177.8            5826 
         3178.1            5519 
