# Granada HRES Library
# atmosphere = Phoenix  (atmosphere model used)
# feh = -5  (value for [Fe/H] for the model.)
# logg = 2.5 log(cm/s2) (value for Log(G) for the model.)
# teff = 4500 K (value for the effective temperature for the model. Temperatures are given in K)
#
# column 1: WAVELENGTH (ANGSTROM), Wavelength in Angstrom
# column 2: FLUX (ERG/CM2/S/A), Flux in erg/cm2/s/A
         3000.2           12510 
         3000.5           11530 
         3000.8           10820 
         3001.1           10390 
         3001.4           10170 
         3001.7           10020 
           3002            9918 
         3002.3           10050 
         3002.6           10830 
         3002.9           12740 
         3003.2           16150 
         3003.5           21150 
         3003.8           27440 
         3004.1           34460 
         3004.4           41430 
         3004.7           47610 
           3005           52340 
         3005.3           55050 
         3005.6           55320 
         3005.9           52990 
         3006.2           48280 
         3006.5           41830 
         3006.8           34670 
         3007.1           27890 
         3007.4           22430 
         3007.7           18830 
           3008           17290 
         3008.3           17680 
         3008.6           19720 
         3008.9           23160 
         3009.2           27690 
         3009.5           32970 
         3009.8           38310 
         3010.1           42800 
         3010.4           45580 
         3010.7           46270 
           3011           45310 
         3011.3           43860 
         3011.6           43360 
         3011.9           44770 
         3012.2           48110 
         3012.5           52370 
         3012.8           56080 
         3013.1           58020 
         3013.4           57730 
         3013.7           55600 
           3014           52460 
         3014.3           49120 
         3014.6           46070 
         3014.9           43530 
         3015.2           41450 
         3015.5           39800 
         3015.8           38510 
         3016.1           37420 
         3016.4           36290 
         3016.7           34780 
           3017           32720 
         3017.3           30140 
         3017.6           27310 
         3017.9           24520 
         3018.2           21880 
         3018.5           19340 
         3018.8           16840 
         3019.1           14320 
         3019.4           11850 
         3019.7            9581 
           3020            7672 
         3020.3            6332 
         3020.6            5770 
         3020.9            6153 
         3021.2            7551 
         3021.5            9879 
         3021.8           12880 
         3022.1           16120 
         3022.4           19090 
         3022.7           21280 
           3023           22410 
         3023.3           22460 
         3023.6           21750 
         3023.9           20740 
         3024.2           19820 
         3024.5           19100 
         3024.8           18490 
         3025.1           17960 
         3025.4           17700 
         3025.7           18230 
           3026           20150 
         3026.3           23930 
         3026.6           29780 
         3026.9           37620 
         3027.2           47300 
         3027.5           58450 
         3027.8           70370 
         3028.1           81730 
         3028.4           90670 
         3028.7           95350 
           3029           94630 
         3029.3           88570 
         3029.6           78450 
         3029.9           66450 
         3030.2           55060 
         3030.5           46770 
         3030.8           43730 
         3031.1           47330 
         3031.4           57720 
         3031.7           73310 
           3032           90830 
         3032.3          106100 
         3032.6          115300 
         3032.9          116800 
         3033.2          111200 
         3033.5          100900 
         3033.8           89400 
         3034.1           79830 
         3034.4           73480 
         3034.7           69980 
           3035           67680 
         3035.3           64650 
         3035.6           59630 
         3035.9           52430 
         3036.2           43840 
         3036.5           35070 
         3036.8           27360 
         3037.1           21630 
         3037.4           18300 
         3037.7           17390 
           3038           18630 
         3038.3           21610 
         3038.6           25870 
         3038.9           30970 
         3039.2           36260 
         3039.5           40950 
         3039.8           44220 
         3040.1           45500 
         3040.4           44700 
         3040.7           42170 
           3041           38550 
         3041.3           34660 
         3041.6           31400 
         3041.9           29680 
         3042.2           30220 
         3042.5           33380 
         3042.8           39210 
         3043.1           47490 
         3043.4           57720 
         3043.7           68860 
           3044           79320 
         3044.3           87140 
         3044.6           90760 
         3044.9           89620 
         3045.2           84390 
         3045.5           76350 
         3045.8           66830 
         3046.1           56730 
         3046.4           46630 
         3046.7           37190 
           3047           29200 
         3047.3           23490 
         3047.6           20690 
         3047.9           21030 
         3048.2           24230 
         3048.5           29500 
         3048.8           35610 
         3049.1           41100 
         3049.4           44640 
         3049.7           45610 
           3050           44520 
         3050.3           42870 
         3050.6           42680 
         3050.9           45610 
         3051.2           52280 
         3051.5           61850 
         3051.8           72210 
         3052.1           80540 
         3052.4           84320 
         3052.7           82200 
           3053           74690 
         3053.3           63910 
         3053.6           52690 
         3053.9           43620 
         3054.2           38290 
         3054.5           37230 
         3054.8           39910 
         3055.1           44990 
         3055.4           50520 
         3055.7           54430 
           3056           55160 
         3056.3           52190 
         3056.6           46210 
         3056.9           38720 
         3057.2           31290 
         3057.5           25060 
         3057.8           20500 
         3058.1           17520 
         3058.4           15880 
         3058.7           15600 
           3059           16990 
         3059.3           20590 
         3059.6           26870 
         3059.9           35950 
         3060.2           47490 
         3060.5           60750 
         3060.8           74750 
         3061.1           88570 
         3061.4          101500 
         3061.7          112700 
           3062          121000 
         3062.3          124700 
         3062.6          122200 
         3062.9          112900 
         3063.2           98060 
         3063.5           80810 
         3063.8           65130 
         3064.1           54370 
         3064.4           50060 
         3064.7           51510 
           3065           56180 
         3065.3           60720 
         3065.6           62310 
         3065.9           59730 
         3066.2           53750 
         3066.5           46670 
         3066.8           41290 
         3067.1           40070 
         3067.4           44550 
         3067.7           55160 
           3068           70970 
         3068.3           89510 
         3068.6          107000 
         3068.9          119400 
         3069.2          124000 
         3069.5          121100 
         3069.8          113900 
         3070.1          107200 
         3070.4          105000 
         3070.7          108500 
           3071          116000 
         3071.3          123900 
         3071.6          128900 
         3071.9          129700 
         3072.2          127000 
         3072.5          122400 
         3072.8          117200 
         3073.1          112200 
         3073.4          107500 
         3073.7          103300 
           3074           99660 
         3074.3           96830 
         3074.6           95340 
         3074.9           96480 
         3075.2          102400 
         3075.5          115000 
         3075.8          134600 
         3076.1          158100 
         3076.4          179700 
         3076.7          192600 
           3077          192700 
         3077.3          180400 
         3077.6          160500 
         3077.9          140000 
         3078.2          125300 
         3078.5          119600 
         3078.8          122400 
         3079.1          130100 
         3079.4          137600 
         3079.7          140200 
           3080          135100 
         3080.3          122200 
         3080.6          104000 
         3080.9           84440 
         3081.2           67890 
         3081.5           57310 
         3081.8           53700 
         3082.1           56150 
         3082.4           62570 
         3082.7           70900 
           3083           80130 
         3083.3           90490 
         3083.6          102600 
         3083.9          116600 
         3084.2          130800 
         3084.5          143100 
         3084.8          151200 
         3085.1          154100 
         3085.4          151500 
         3085.7          144100 
           3086          133600 
         3086.3          122200 
         3086.6          112800 
         3086.9          107700 
         3087.2          108100 
         3087.5          113300 
         3087.8          121300 
         3088.1          128800 
         3088.4          132600 
         3088.7          130300 
           3089          121800 
         3089.3          109200 
         3089.6           95940 
         3089.9           84540 
         3090.2           75680 
         3090.5           68240 
         3090.8           60630 
         3091.1           52020 
         3091.4           42780 
         3091.7           34080 
           3092           27180 
         3092.3           22970 
         3092.6           21870 
         3092.9           23820 
         3093.2           28340 
         3093.5           34580 
         3093.8           41410 
         3094.1           47560 
         3094.4           51870 
         3094.7           53520 
           3095           52330 
         3095.3           48910 
         3095.6           44520 
         3095.9           40810 
         3096.2           39450 
         3096.5           41620 
         3096.8           47650 
         3097.1           56580 
         3097.4           66120 
         3097.7           73290 
           3098           75490 
         3098.3           71670 
         3098.6           62720 
         3098.9           50990 
         3099.2           39210 
         3099.5           29500 
         3099.8           22860 
         3100.1           19240 
         3100.4           18010 
         3100.7           18480 
           3101           20410 
         3101.3           30940 
         3101.6           41470 
         3101.9           55980 
         3102.2           73420 
         3102.5           91830 
         3102.8          109100 
         3103.1          124100 
         3103.4          136400 
         3103.7          146000 
           3104          151700 
         3104.3          151700 
         3104.6          144400 
         3104.9          130500 
         3105.2          113100 
         3105.5           97080 
         3105.8           86680 
         3106.1           83740 
         3106.4           87300 
         3106.7           94470 
           3107          102000 
         3107.3          107100 
         3107.6          109100 
         3107.9          108000 
         3108.2          105000 
         3108.5          102100 
         3108.8          101200 
         3109.1          104300 
         3109.4          113100 
         3109.7          128600 
           3110          150600 
         3110.3          178000 
         3110.6          208200 
         3110.9          237400 
         3111.2          261200 
         3111.5          275300 
         3111.8          276800 
         3112.1          265000 
         3112.4          242300 
         3112.7          213800 
           3113          186600 
         3113.3          168700 
         3113.6          165800 
         3113.9          180300 
         3114.2          209500 
         3114.5          246200 
         3114.8          280500 
         3115.1          302900 
         3115.4          306400 
         3115.7          289300 
           3116          254800 
         3116.3          210500 
         3116.6          165400 
         3116.9          127500 
         3117.2          101200 
         3117.5           86730 
         3117.8           81420 
         3118.1           81180 
         3118.4           82490 
         3118.7           83530 
           3119           84450 
         3119.3           86800 
         3119.6           92270 
         3119.9          101200 
         3120.2          111500 
         3120.5          119400 
         3120.8          121300 
         3121.1          115400 
         3121.4          103000 
         3121.7           88300 
           3122           76400 
         3122.3           71490 
         3122.6           75750 
         3122.9           88700 
         3123.2          107300 
         3123.5          126700 
         3123.8          141900 
         3124.1          149300 
         3124.4          148800 
         3124.7          143500 
           3125          138000 
         3125.3          136600 
         3125.6          141500 
         3125.9          152100 
         3126.2          165000 
         3126.5          175300 
         3126.8          177600 
         3127.1          169100 
         3127.4          151300 
         3127.7          129200 
           3128          109800 
         3128.3           98620 
         3128.6           97610 
         3128.9          104800 
         3129.2          115300 
         3129.5          123800 
         3129.8          126400 
         3130.1          122500 
         3130.4          113500 
         3130.7          102300 
           3131           91610 
         3131.3           82950 
         3131.6           76450 
         3131.9           71350 
         3132.2           66640 
         3132.5           61780 
         3132.8           57130 
         3133.1           54150 
         3133.4           55090 
         3133.7           62050 
           3134           75760 
         3134.3           94370 
         3134.6          113600 
         3134.9          128300 
         3135.2          134400 
         3135.5          132200 
         3135.8          124700 
         3136.1          117000 
         3136.4          113300 
         3136.7          115800 
           3137          124200 
         3137.3          136700 
         3137.6          151300 
         3137.9          166000 
         3138.2          178900 
         3138.5          188400 
         3138.8          193600 
         3139.1          193900 
         3139.4          189800 
         3139.7          183600 
           3140          178100 
         3140.3          174900 
         3140.6          174000 
         3140.9          173600 
         3141.2          172100 
         3141.5          169000 
         3141.8          164700 
         3142.1          159500 
         3142.4          152400 
         3142.7          141600 
           3143          126400 
         3143.3          107700 
         3143.6           89320 
         3143.9           75320 
         3144.2           69420 
         3144.5           73690 
         3144.8           87980 
         3145.1          109500 
         3145.4          132800 
         3145.7          151000 
           3146          158600 
         3146.3          153700 
         3146.6          139900 
         3146.9          124100 
         3147.2          114500 
         3147.5          117700 
         3147.8          136500 
         3148.1          169100 
         3148.4          209900 
         3148.7          250400 
           3149          283000 
         3149.3          302500 
         3149.6          308300 
         3149.9          302800 
         3150.2          289500 
         3150.5          271100 
         3150.8          249600 
         3151.1          226200 
         3151.4          202200 
         3151.7          180200 
           3152          162300 
         3152.3          150600 
         3152.6          145100 
         3152.9          143600 
         3153.2          142500 
         3153.5          139200 
         3153.8          133200 
         3154.1          126700 
         3154.4          122200 
         3154.7          120900 
           3155          121600 
         3155.3          121100 
         3155.6          117100 
         3155.9          108900 
         3156.2           97870 
         3156.5           86440 
         3156.8           76980 
         3157.1           70910 
         3157.4           68450 
         3157.7           69060 
           3158           71860 
         3158.3           75980 
         3158.6           80610 
         3158.9           84970 
         3159.2           88290 
         3159.5           89900 
         3159.8           89560 
         3160.1           87590 
         3160.4           84960 
         3160.7           83300 
           3161           84610 
         3161.3           90970 
         3161.6          103700 
         3161.9          122700 
         3162.2          145300 
         3162.5          166800 
         3162.8          181600 
         3163.1          185100 
         3163.4          176100 
         3163.7          157500 
           3164          134600 
         3164.3          113700 
         3164.6           99450 
         3164.9           94280 
         3165.2           99050 
         3165.5          113600 
         3165.8          137200 
         3166.1          167500 
         3166.4          200500 
         3166.7          230400 
           3167          251200 
         3167.3          258100 
         3167.6          249900 
         3167.9          229300 
         3168.2          202200 
         3168.5          175800 
         3168.8          156800 
         3169.1          149400 
         3169.4          155400 
         3169.7          174200 
           3170          204800 
         3170.3          244400 
         3170.6          289500 
         3170.9          335800 
         3171.2          377400 
         3171.5          408400 
         3171.8          423200 
         3172.1          419600 
         3172.4          399700 
         3172.7          371300 
           3173          345400 
         3173.3          331200 
         3173.6          332600 
         3173.9          346600 
         3174.2          367100 
         3174.5          389100 
         3174.8          410500 
         3175.1          431600 
         3175.4          451800 
         3175.7          467200 
           3176          471500 
         3176.3          459500 
         3176.6          429700 
         3176.9          386600 
         3177.2          339500 
         3177.5          298000 
         3177.8          268600 
         3178.1          251400 
