# Granada HRES Library
# atmosphere = Spectrum  (atmosphere model used)
# feh = -10  (value for [Fe/H] for the model.)
# logg = 4.5 log(cm/s2) (value for Log(G) for the model.)
# teff = 5750 K (value for the effective temperature for the model. Temperatures are given in K)
#
# column 1: WAVELENGTH (ANGSTROM), Wavelength in Angstrom
# column 2: FLUX (ERG/CM2/S/A), Flux in erg/cm2/s/A
         3000.2        2.398e+6 
         3000.5         2.43e+6 
         3000.8        2.468e+6 
         3001.1        2.507e+6 
         3001.4        2.541e+6 
         3001.7        2.571e+6 
           3002        2.601e+6 
         3002.3        2.644e+6 
         3002.6        2.716e+6 
         3002.9        2.835e+6 
         3003.2        3.012e+6 
         3003.5        3.248e+6 
         3003.8        3.531e+6 
         3004.1         3.84e+6 
         3004.4        4.147e+6 
         3004.7        4.421e+6 
           3005        4.637e+6 
         3005.3        4.773e+6 
         3005.6        4.818e+6 
         3005.9         4.77e+6 
         3006.2        4.642e+6 
         3006.5        4.453e+6 
         3006.8        4.231e+6 
         3007.1        4.009e+6 
         3007.4        3.817e+6 
         3007.7         3.68e+6 
           3008        3.612e+6 
         3008.3        3.622e+6 
         3008.6        3.707e+6 
         3008.9        3.857e+6 
         3009.2        4.056e+6 
         3009.5         4.28e+6 
         3009.8        4.502e+6 
         3010.1        4.692e+6 
         3010.4        4.827e+6 
         3010.7        4.892e+6 
           3011        4.891e+6 
         3011.3        4.839e+6 
         3011.6        4.763e+6 
         3011.9        4.689e+6 
         3012.2        4.633e+6 
         3012.5        4.601e+6 
         3012.8        4.588e+6 
         3013.1        4.583e+6 
         3013.4        4.575e+6 
         3013.7        4.556e+6 
           3014        4.527e+6 
         3014.3        4.492e+6 
         3014.6        4.458e+6 
         3014.9         4.43e+6 
         3015.2        4.411e+6 
         3015.5        4.399e+6 
         3015.8         4.39e+6 
         3016.1        4.373e+6 
         3016.4        4.339e+6 
         3016.7        4.281e+6 
           3017        4.195e+6 
         3017.3        4.078e+6 
         3017.6        3.931e+6 
         3017.9        3.753e+6 
         3018.2        3.545e+6 
         3018.5        3.308e+6 
         3018.8        3.048e+6 
         3019.1        2.772e+6 
         3019.4        2.498e+6 
         3019.7        2.248e+6 
           3020         2.05e+6 
         3020.3        1.931e+6 
         3020.6        1.919e+6 
         3020.9         2.03e+6 
         3021.2        2.264e+6 
         3021.5        2.602e+6 
         3021.8        3.009e+6 
         3022.1        3.437e+6 
         3022.4        3.838e+6 
         3022.7        4.171e+6 
           3023        4.407e+6 
         3023.3        4.532e+6 
         3023.6        4.549e+6 
         3023.9        4.472e+6 
         3024.2        4.324e+6 
         3024.5        4.133e+6 
         3024.8        3.929e+6 
         3025.1         3.75e+6 
         3025.4        3.631e+6 
         3025.7        3.604e+6 
           3026        3.684e+6 
         3026.3        3.872e+6 
         3026.6        4.144e+6 
         3026.9        4.463e+6 
         3027.2        4.782e+6 
         3027.5        5.058e+6 
         3027.8        5.261e+6 
         3028.1        5.375e+6 
         3028.4        5.398e+6 
         3028.7        5.344e+6 
           3029        5.232e+6 
         3029.3        5.084e+6 
         3029.6        4.925e+6 
         3029.9        4.771e+6 
         3030.2        4.636e+6 
         3030.5        4.531e+6 
         3030.8        4.461e+6 
         3031.1        4.433e+6 
         3031.4        4.446e+6 
         3031.7          4.5e+6 
           3032        4.584e+6 
         3032.3        4.689e+6 
         3032.6        4.801e+6 
         3032.9        4.913e+6 
         3033.2        5.019e+6 
         3033.5         5.12e+6 
         3033.8         5.22e+6 
         3034.1        5.318e+6 
         3034.4        5.407e+6 
         3034.7        5.473e+6 
           3035        5.496e+6 
         3035.3        5.453e+6 
         3035.6        5.327e+6 
         3035.9        5.112e+6 
         3036.2        4.821e+6 
         3036.5        4.484e+6 
         3036.8        4.147e+6 
         3037.1        3.861e+6 
         3037.4        3.668e+6 
         3037.7        3.595e+6 
           3038        3.645e+6 
         3038.3        3.795e+6 
         3038.6        4.005e+6 
         3038.9         4.23e+6 
         3039.2        4.428e+6 
         3039.5        4.568e+6 
         3039.8        4.633e+6 
         3040.1        4.624e+6 
         3040.4        4.555e+6 
         3040.7        4.446e+6 
           3041        4.325e+6 
         3041.3        4.219e+6 
         3041.6        4.155e+6 
         3041.9        4.148e+6 
         3042.2        4.205e+6 
         3042.5        4.318e+6 
         3042.8        4.469e+6 
         3043.1         4.63e+6 
         3043.4        4.779e+6 
         3043.7        4.895e+6 
           3044        4.971e+6 
         3044.3        5.008e+6 
         3044.6         5.01e+6 
         3044.9        4.981e+6 
         3045.2        4.918e+6 
         3045.5        4.818e+6 
         3045.8        4.677e+6 
         3046.1        4.495e+6 
         3046.4        4.286e+6 
         3046.7        4.078e+6 
           3047        3.905e+6 
         3047.3        3.802e+6 
         3047.6        3.791e+6 
         3047.9        3.874e+6 
         3048.2        4.035e+6 
         3048.5        4.236e+6 
         3048.8        4.439e+6 
         3049.1        4.608e+6 
         3049.4        4.722e+6 
         3049.7        4.782e+6 
           3050         4.81e+6 
         3050.3        4.833e+6 
         3050.6        4.881e+6 
         3050.9        4.969e+6 
         3051.2        5.095e+6 
         3051.5        5.235e+6 
         3051.8        5.357e+6 
         3052.1        5.427e+6 
         3052.4        5.426e+6 
         3052.7        5.351e+6 
           3053        5.218e+6 
         3053.3         5.06e+6 
         3053.6        4.913e+6 
         3053.9        4.809e+6 
         3054.2        4.767e+6 
         3054.5        4.787e+6 
         3054.8         4.85e+6 
         3055.1        4.922e+6 
         3055.4        4.965e+6 
         3055.7        4.946e+6 
           3056        4.842e+6 
         3056.3        4.652e+6 
         3056.6        4.393e+6 
         3056.9        4.096e+6 
         3057.2        3.802e+6 
         3057.5        3.546e+6 
         3057.8        3.358e+6 
         3058.1        3.253e+6 
         3058.4        3.238e+6 
         3058.7        3.312e+6 
           3059        3.471e+6 
         3059.3        3.705e+6 
         3059.6        3.992e+6 
         3059.9        4.309e+6 
         3060.2        4.625e+6 
         3060.5        4.908e+6 
         3060.8        5.136e+6 
         3061.1        5.292e+6 
         3061.4        5.371e+6 
         3061.7        5.375e+6 
           3062        5.311e+6 
         3062.3        5.186e+6 
         3062.6        5.014e+6 
         3062.9         4.81e+6 
         3063.2        4.593e+6 
         3063.5        4.385e+6 
         3063.8        4.204e+6 
         3064.1        4.062e+6 
         3064.4        3.957e+6 
         3064.7        3.878e+6 
           3065        3.805e+6 
         3065.3        3.719e+6 
         3065.6        3.608e+6 
         3065.9        3.472e+6 
         3066.2        3.322e+6 
         3066.5         3.18e+6 
         3066.8        3.069e+6 
         3067.1        3.014e+6 
         3067.4        3.027e+6 
         3067.7        3.114e+6 
           3068        3.268e+6 
         3068.3         3.47e+6 
         3068.6        3.698e+6 
         3068.9        3.927e+6 
         3069.2        4.135e+6 
         3069.5        4.308e+6 
         3069.8        4.442e+6 
         3070.1        4.537e+6 
         3070.4        4.599e+6 
         3070.7        4.633e+6 
           3071        4.646e+6 
         3071.3        4.643e+6 
         3071.6        4.633e+6 
         3071.9        4.628e+6 
         3072.2        4.638e+6 
         3072.5        4.672e+6 
         3072.8        4.727e+6 
         3073.1         4.79e+6 
         3073.4        4.842e+6 
         3073.7        4.861e+6 
           3074        4.835e+6 
         3074.3        4.762e+6 
         3074.6        4.659e+6 
         3074.9        4.551e+6 
         3075.2        4.472e+6 
         3075.5        4.444e+6 
         3075.8        4.474e+6 
         3076.1        4.553e+6 
         3076.4        4.654e+6 
         3076.7        4.744e+6 
           3077        4.801e+6 
         3077.3        4.813e+6 
         3077.6        4.786e+6 
         3077.9        4.738e+6 
         3078.2        4.692e+6 
         3078.5        4.666e+6 
         3078.8        4.668e+6 
         3079.1        4.691e+6 
         3079.4        4.718e+6 
         3079.7        4.729e+6 
           3080        4.709e+6 
         3080.3        4.652e+6 
         3080.6        4.562e+6 
         3080.9        4.452e+6 
         3081.2        4.339e+6 
         3081.5        4.241e+6 
         3081.8        4.173e+6 
         3082.1        4.145e+6 
         3082.4        4.159e+6 
         3082.7        4.215e+6 
           3083        4.309e+6 
         3083.3        4.436e+6 
         3083.6        4.587e+6 
         3083.9        4.751e+6 
         3084.2        4.915e+6 
         3084.5         5.06e+6 
         3084.8         5.17e+6 
         3085.1        5.225e+6 
         3085.4        5.217e+6 
         3085.7         5.14e+6 
           3086        5.001e+6 
         3086.3        4.816e+6 
         3086.6        4.607e+6 
         3086.9        4.401e+6 
         3087.2        4.221e+6 
         3087.5        4.083e+6 
         3087.8         3.99e+6 
         3088.1        3.932e+6 
         3088.4        3.892e+6 
         3088.7         3.85e+6 
           3089        3.792e+6 
         3089.3        3.717e+6 
         3089.6        3.629e+6 
         3089.9        3.541e+6 
         3090.2        3.465e+6 
         3090.5        3.408e+6 
         3090.8        3.368e+6 
         3091.1        3.342e+6 
         3091.4        3.322e+6 
         3091.7        3.302e+6 
           3092        3.282e+6 
         3092.3         3.27e+6 
         3092.6        3.276e+6 
         3092.9        3.316e+6 
         3093.2        3.397e+6 
         3093.5        3.516e+6 
         3093.8         3.66e+6 
         3094.1        3.807e+6 
         3094.4        3.933e+6 
         3094.7        4.016e+6 
           3095        4.043e+6 
         3095.3         4.01e+6 
         3095.6        3.927e+6 
         3095.9        3.816e+6 
         3096.2        3.703e+6 
         3096.5        3.615e+6 
         3096.8        3.569e+6 
         3097.1        3.565e+6 
         3097.4        3.589e+6 
         3097.7        3.614e+6 
           3098        3.607e+6 
         3098.3        3.546e+6 
         3098.6        3.417e+6 
         3098.9        3.228e+6 
         3099.2        2.998e+6 
         3099.5        2.755e+6 
         3099.8        2.532e+6 
         3100.1        2.354e+6 
         3100.4        2.243e+6 
         3100.7        2.212e+6 
           3101        2.266e+6 
         3101.3        2.405e+6 
         3101.6        2.626e+6 
         3101.9        2.914e+6 
         3102.2        3.251e+6 
         3102.5        3.606e+6 
         3102.8        3.949e+6 
         3103.1        4.248e+6 
         3103.4        4.478e+6 
         3103.7        4.625e+6 
           3104        4.688e+6 
         3104.3        4.678e+6 
         3104.6        4.618e+6 
         3104.9        4.533e+6 
         3105.2        4.455e+6 
         3105.5        4.407e+6 
         3105.8        4.408e+6 
         3106.1        4.464e+6 
         3106.4         4.57e+6 
         3106.7        4.713e+6 
           3107        4.873e+6 
         3107.3        5.031e+6 
         3107.6        5.167e+6 
         3107.9        5.268e+6 
         3108.2        5.326e+6 
         3108.5        5.338e+6 
         3108.8        5.311e+6 
         3109.1        5.256e+6 
         3109.4        5.188e+6 
         3109.7        5.122e+6 
           3110        5.074e+6 
         3110.3        5.052e+6 
         3110.6        5.057e+6 
         3110.9        5.084e+6 
         3111.2        5.122e+6 
         3111.5        5.161e+6 
         3111.8        5.187e+6 
         3112.1        5.192e+6 
         3112.4        5.168e+6 
         3112.7        5.114e+6 
           3113        5.034e+6 
         3113.3         4.94e+6 
         3113.6        4.852e+6 
         3113.9        4.791e+6 
         3114.2        4.777e+6 
         3114.5        4.816e+6 
         3114.8        4.902e+6 
         3115.1         5.01e+6 
         3115.4         5.11e+6 
         3115.7        5.167e+6 
           3116        5.156e+6 
         3116.3        5.069e+6 
         3116.6        4.915e+6 
         3116.9        4.718e+6 
         3117.2        4.508e+6 
         3117.5        4.312e+6 
         3117.8        4.151e+6 
         3118.1        4.034e+6 
         3118.4        3.962e+6 
         3118.7        3.928e+6 
           3119        3.926e+6 
         3119.3        3.946e+6 
         3119.6        3.984e+6 
         3119.9        4.031e+6 
         3120.2        4.081e+6 
         3120.5        4.125e+6 
         3120.8        4.154e+6 
         3121.1        4.166e+6 
         3121.4        4.163e+6 
         3121.7        4.159e+6 
           3122        4.166e+6 
         3122.3        4.193e+6 
         3122.6        4.246e+6 
         3122.9        4.315e+6 
         3123.2        4.384e+6 
         3123.5        4.433e+6 
         3123.8        4.449e+6 
         3124.1        4.424e+6 
         3124.4         4.37e+6 
         3124.7        4.304e+6 
           3125        4.251e+6 
         3125.3        4.233e+6 
         3125.6        4.261e+6 
         3125.9        4.333e+6 
         3126.2        4.432e+6 
         3126.5        4.536e+6 
         3126.8        4.621e+6 
         3127.1        4.671e+6 
         3127.4         4.68e+6 
         3127.7        4.656e+6 
           3128        4.613e+6 
         3128.3        4.568e+6 
         3128.6        4.535e+6 
         3128.9         4.52e+6 
         3129.2        4.517e+6 
         3129.5        4.517e+6 
         3129.8        4.512e+6 
         3130.1        4.498e+6 
         3130.4        4.475e+6 
         3130.7        4.447e+6 
           3131        4.416e+6 
         3131.3        4.384e+6 
         3131.6         4.35e+6 
         3131.9        4.311e+6 
         3132.2        4.266e+6 
         3132.5        4.216e+6 
         3132.8        4.161e+6 
         3133.1        4.111e+6 
         3133.4        4.075e+6 
         3133.7        4.068e+6 
           3134        4.102e+6 
         3134.3        4.182e+6 
         3134.6        4.302e+6 
         3134.9        4.445e+6 
         3135.2        4.588e+6 
         3135.5        4.711e+6 
         3135.8        4.803e+6 
         3136.1        4.864e+6 
         3136.4        4.904e+6 
         3136.7        4.934e+6 
           3137        4.963e+6 
         3137.3        4.994e+6 
         3137.6        5.021e+6 
         3137.9        5.039e+6 
         3138.2        5.045e+6 
         3138.5         5.04e+6 
         3138.8        5.028e+6 
         3139.1        5.019e+6 
         3139.4        5.019e+6 
         3139.7        5.033e+6 
           3140         5.06e+6 
         3140.3        5.096e+6 
         3140.6         5.13e+6 
         3140.9        5.146e+6 
         3141.2        5.126e+6 
         3141.5        5.052e+6 
         3141.8        4.908e+6 
         3142.1        4.688e+6 
         3142.4        4.395e+6 
         3142.7        4.044e+6 
           3143        3.663e+6 
         3143.3        3.291e+6 
         3143.6        2.964e+6 
         3143.9        2.722e+6 
         3144.2        2.587e+6 
         3144.5         2.57e+6 
         3144.8        2.664e+6 
         3145.1        2.845e+6 
         3145.4        3.082e+6 
         3145.7        3.339e+6 
           3146        3.585e+6 
         3146.3        3.798e+6 
         3146.6        3.972e+6 
         3146.9        4.111e+6 
         3147.2        4.228e+6 
         3147.5        4.335e+6 
         3147.8        4.441e+6 
         3148.1        4.546e+6 
         3148.4        4.647e+6 
         3148.7        4.736e+6 
           3149         4.81e+6 
         3149.3        4.868e+6 
         3149.6        4.913e+6 
         3149.9        4.952e+6 
         3150.2        4.983e+6 
         3150.5        5.007e+6 
         3150.8        5.017e+6 
         3151.1        5.013e+6 
         3151.4        4.996e+6 
         3151.7        4.969e+6 
           3152        4.943e+6 
         3152.3        4.924e+6 
         3152.6        4.915e+6 
         3152.9        4.915e+6 
         3153.2        4.915e+6 
         3153.5         4.91e+6 
         3153.8        4.895e+6 
         3154.1        4.866e+6 
         3154.4        4.824e+6 
         3154.7         4.77e+6 
           3155        4.701e+6 
         3155.3        4.614e+6 
         3155.6        4.504e+6 
         3155.9        4.369e+6 
         3156.2         4.21e+6 
         3156.5        4.034e+6 
         3156.8        3.853e+6 
         3157.1        3.681e+6 
         3157.4        3.534e+6 
         3157.7        3.419e+6 
           3158        3.345e+6 
         3158.3        3.311e+6 
         3158.6        3.311e+6 
         3158.9        3.334e+6 
         3159.2        3.367e+6 
         3159.5        3.395e+6 
         3159.8        3.407e+6 
         3160.1        3.395e+6 
         3160.4        3.364e+6 
         3160.7        3.322e+6 
           3161        3.288e+6 
         3161.3        3.279e+6 
         3161.6        3.309e+6 
         3161.9        3.385e+6 
         3162.2        3.503e+6 
         3162.5        3.653e+6 
         3162.8        3.816e+6 
         3163.1        3.971e+6 
         3163.4          4.1e+6 
         3163.7        4.194e+6 
           3164        4.251e+6 
         3164.3        4.279e+6 
         3164.6        4.291e+6 
         3164.9        4.302e+6 
         3165.2        4.323e+6 
         3165.5         4.36e+6 
         3165.8        4.412e+6 
         3166.1        4.473e+6 
         3166.4        4.533e+6 
         3166.7        4.579e+6 
           3167        4.599e+6 
         3167.3        4.586e+6 
         3167.6        4.535e+6 
         3167.9        4.458e+6 
         3168.2         4.37e+6 
         3168.5        4.295e+6 
         3168.8        4.256e+6 
         3169.1        4.268e+6 
         3169.4        4.336e+6 
         3169.7        4.455e+6 
           3170        4.609e+6 
         3170.3        4.775e+6 
         3170.6        4.934e+6 
         3170.9        5.071e+6 
         3171.2        5.175e+6 
         3171.5        5.244e+6 
         3171.8        5.277e+6 
         3172.1        5.277e+6 
         3172.4        5.245e+6 
         3172.7        5.188e+6 
           3173        5.111e+6 
         3173.3        5.025e+6 
         3173.6        4.939e+6 
         3173.9        4.864e+6 
         3174.2        4.809e+6 
         3174.5        4.786e+6 
         3174.8          4.8e+6 
         3175.1        4.854e+6 
         3175.4        4.941e+6 
         3175.7        5.048e+6 
           3176        5.155e+6 
         3176.3        5.237e+6 
         3176.6        5.275e+6 
         3176.9        5.259e+6 
         3177.2         5.19e+6 
         3177.5        5.073e+6 
         3177.8        4.922e+6 
         3178.1        4.747e+6 
