# Granada HRES Library
# atmosphere = Phoenix  (atmosphere model used)
# feh = 3  (value for [Fe/H] for the model.)
# logg = 0.5 log(cm/s2) (value for Log(G) for the model.)
# teff = 4000 K (value for the effective temperature for the model. Temperatures are given in K)
#
# column 1: WAVELENGTH (ANGSTROM), Wavelength in Angstrom
# column 2: FLUX (ERG/CM2/S/A), Flux in erg/cm2/s/A
         3000.2           161.7 
         3000.5           143.9 
         3000.8           132.8 
         3001.1           127.5 
         3001.4           125.7 
         3001.7           124.8 
           3002           123.7 
         3002.3             123 
         3002.6           125.8 
         3002.9           135.9 
         3003.2           156.6 
         3003.5           189.3 
         3003.8           232.8 
         3004.1           283.5 
         3004.4           336.3 
         3004.7           385.6 
           3005           425.8 
         3005.3           452.5 
         3005.6           462.1 
         3005.9           453.2 
         3006.2             427 
         3006.5           387.6 
         3006.8           341.8 
         3007.1           297.1 
         3007.4           261.3 
         3007.7           239.7 
           3008           235.3 
         3008.3             248 
         3008.6           275.6 
         3008.9             315 
         3009.2             363 
         3009.5           415.2 
         3009.8           465.1 
         3010.1           503.4 
         3010.4           521.3 
         3010.7           514.5 
           3011           487.6 
         3011.3             452 
         3011.6             422 
         3011.9           407.8 
         3012.2           411.3 
         3012.5           426.5 
         3012.8           443.5 
         3013.1           453.5 
         3013.4           452.6 
         3013.7             442 
           3014           426.8 
         3014.3           413.4 
         3014.6           406.4 
         3014.9           407.6 
         3015.2           414.9 
         3015.5           424.5 
         3015.8           432.3 
         3016.1           435.7 
         3016.4             433 
         3016.7             423 
           3017           405.4 
         3017.3           381.7 
         3017.6           354.3 
         3017.9           325.8 
         3018.2           297.4 
         3018.5           268.5 
         3018.8           238.4 
         3019.1           207.3 
         3019.4           176.4 
         3019.7           147.8 
           3020           124.1 
         3020.3           107.3 
         3020.6           99.66 
         3020.9           102.8 
         3021.2           116.9 
         3021.5           140.9 
         3021.8           171.9 
         3022.1           205.4 
         3022.4           236.1 
         3022.7           258.7 
           3023           269.8 
         3023.3           268.6 
         3023.6           257.5 
         3023.9           241.3 
         3024.2           224.8 
         3024.5           211.1 
         3024.8           200.9 
         3025.1           193.9 
         3025.4           190.5 
         3025.7           192.4 
           3026           202.2 
         3026.3           221.1 
         3026.6           247.6 
         3026.9           277.9 
         3027.2           307.9 
         3027.5           334.7 
         3027.8           357.6 
         3028.1           378.9 
         3028.4           401.6 
         3028.7           427.7 
           3029           455.9 
         3029.3           481.2 
         3029.6           497.4 
         3029.9           500.8 
         3030.2           493.3 
         3030.5           483.5 
         3030.8           484.3 
         3031.1           508.3 
         3031.4           560.5 
         3031.7           634.8 
           3032           713.6 
         3032.3             776 
         3032.6           805.5 
         3032.9           797.5 
         3033.2           759.1 
         3033.5           703.8 
         3033.8           646.1 
         3034.1           596.5 
         3034.4             561 
         3034.7           539.3 
           3035             526 
         3035.3           512.2 
         3035.6           489.9 
         3035.9           454.7 
         3036.2             408 
         3036.5             356 
         3036.8           307.6 
         3037.1           271.8 
         3037.4             255 
         3037.7           259.2 
           3038           281.7 
         3038.3           316.3 
         3038.6           356.9 
         3038.9           399.3 
         3039.2           441.5 
         3039.5             482 
         3039.8           518.3 
         3040.1           546.8 
         3040.4           563.9 
         3040.7           568.3 
           3041           562.3 
         3041.3           552.2 
         3041.6           546.8 
         3041.9           553.4 
         3042.2           573.8 
         3042.5           602.4 
         3042.8             629 
         3043.1           645.1 
         3043.4           648.2 
         3043.7           642.7 
           3044           636.8 
         3044.3             637 
         3044.6           645.4 
         3044.9           658.2 
         3045.2           667.1 
         3045.5           662.7 
         3045.8           636.8 
         3046.1           586.6 
         3046.4           516.3 
         3046.7           435.6 
           3047           357.7 
         3047.3           295.2 
         3047.6           256.5 
         3047.9           245.7 
         3048.2           261.6 
         3048.5             299 
         3048.8           348.8 
         3049.1           399.2 
         3049.4           438.1 
         3049.7           456.6 
           3050           452.8 
         3050.3           432.5 
         3050.6           406.5 
         3050.9           385.6 
         3051.2           376.4 
         3051.5           379.8 
         3051.8           391.9 
         3052.1           406.5 
         3052.4           417.1 
         3052.7           418.7 
           3053             410 
         3053.3           393.6 
         3053.6             375 
         3053.9           359.7 
         3054.2           350.9 
         3054.5           348.6 
         3054.8           349.9 
         3055.1           350.9 
         3055.4           348.3 
         3055.7           340.4 
           3056             328 
         3056.3           313.2 
         3056.6           298.5 
         3056.9           286.3 
         3057.2           277.2 
         3057.5           270.6 
         3057.8           264.3 
         3058.1           256.4 
         3058.4           247.3 
         3058.7           240.7 
           3059           243.5 
         3059.3           262.4 
         3059.6           301.6 
         3059.9           359.8 
         3060.2           430.2 
         3060.5           502.6 
         3060.8           566.8 
         3061.1           614.9 
         3061.4           643.9 
         3061.7             654 
           3062           647.2 
         3062.3           624.9 
         3062.6           589.1 
         3062.9           544.2 
         3063.2             498 
         3063.5           459.1 
         3063.8           434.5 
         3064.1           425.6 
         3064.4           428.1 
         3064.7           434.6 
           3065           438.5 
         3065.3           437.6 
         3065.6           434.8 
         3065.9           435.3 
         3066.2           443.3 
         3066.5           459.7 
         3066.8             483 
         3067.1           512.4 
         3067.4           549.9 
         3067.7           599.4 
           3068             663 
         3068.3           735.5 
         3068.6           803.6 
         3068.9           850.3 
         3069.2           862.8 
         3069.5           839.8 
         3069.8           792.3 
         3070.1           738.3 
         3070.4             695 
         3070.7           673.7 
           3071           677.8 
         3071.3           705.4 
         3071.6           751.5 
         3071.9           809.7 
         3072.2           872.7 
         3072.5           931.8 
         3072.8             978 
         3073.1            1005 
         3073.4            1011 
         3073.7           997.9 
           3074           968.1 
         3074.3           926.3 
         3074.6           880.4 
         3074.9           843.1 
         3075.2           830.1 
         3075.5           853.2 
         3075.8           911.7 
         3076.1           989.1 
         3076.4            1058 
         3076.7            1092 
           3077            1079 
         3077.3            1026 
         3077.6             951 
         3077.9           874.6 
         3078.2           811.4 
         3078.5           765.7 
         3078.8           734.1 
         3079.1           708.8 
         3079.4           682.4 
         3079.7           650.2 
           3080           611.2 
         3080.3           567.7 
         3080.6           524.5 
         3080.9           487.8 
         3081.2           464.3 
         3081.5           458.6 
         3081.8           471.6 
         3082.1           499.1 
         3082.4           531.4 
         3082.7           557.9 
           3083           571.7 
         3083.3           575.4 
         3083.6           580.3 
         3083.9           602.7 
         3084.2           656.1 
         3084.5           745.6 
         3084.8             864 
         3085.1           994.8 
         3085.4            1119 
         3085.7            1225 
           3086            1311 
         3086.3            1381 
         3086.6            1440 
         3086.9            1485 
         3087.2            1510 
         3087.5            1511 
         3087.8            1486 
         3088.1            1435 
         3088.4            1355 
         3088.7            1248 
           3089            1127 
         3089.3            1014 
         3089.6           931.8 
         3089.9           889.7 
         3090.2           875.3 
         3090.5           862.8 
         3090.8           827.3 
         3091.1           758.7 
         3091.4           664.9 
         3091.7             566 
           3092           484.8 
         3092.3           438.6 
         3092.6           435.7 
         3092.9           474.2 
         3093.2           542.9 
         3093.5           624.1 
         3093.8           699.6 
         3094.1             756 
         3094.4           788.9 
         3094.7           802.1 
           3095           803.9 
         3095.3           802.4 
         3095.6             804 
         3095.9           815.2 
         3096.2           846.4 
         3096.5           911.6 
         3096.8            1023 
         3097.1            1177 
         3097.4            1351 
         3097.7            1496 
           3098            1563 
         3098.3            1519 
         3098.6            1367 
         3098.9            1144 
         3099.2           904.2 
         3099.5           695.8 
         3099.8           545.1 
         3100.1           454.7 
         3100.4           411.1 
         3100.7             398 
           3101             407 
         3101.3           519.1 
         3101.6           653.7 
         3101.9           849.6 
         3102.2            1089 
         3102.5            1337 
         3102.8            1548 
         3103.1            1695 
         3103.4            1774 
         3103.7            1806 
           3104            1810 
         3104.3            1786 
         3104.6            1720 
         3104.9            1593 
         3105.2            1408 
         3105.5            1188 
         3105.8           973.5 
         3106.1           797.9 
         3106.4           682.8 
         3106.7           633.6 
           3107           645.1 
         3107.3           706.7 
         3107.6           805.1 
         3107.9           923.9 
         3108.2            1043 
         3108.5            1141 
         3108.8            1201 
         3109.1            1215 
         3109.4            1192 
         3109.7            1156 
           3110            1135 
         3110.3            1148 
         3110.6            1189 
         3110.9            1235 
         3111.2            1253 
         3111.5            1218 
         3111.8            1129 
         3112.1            1008 
         3112.4           884.1 
         3112.7           788.5 
           3113           740.1 
         3113.3           748.7 
         3113.6             818 
         3113.9           951.5 
         3114.2            1152 
         3114.5            1418 
         3114.8            1729 
         3115.1            2042 
         3115.4            2294 
         3115.7            2418 
           3116            2379 
         3116.3            2192 
         3116.6            1916 
         3116.9            1630 
         3117.2            1405 
         3117.5            1272 
         3117.8            1232 
         3118.1            1256 
         3118.4            1306 
         3118.7            1348 
           3119            1365 
         3119.3            1356 
         3119.6            1335 
         3119.9            1320 
         3120.2            1320 
         3120.5            1332 
         3120.8            1347 
         3121.1            1362 
         3121.4            1391 
         3121.7            1464 
           3122            1612 
         3122.3            1844 
         3122.6            2139 
         3122.9            2439 
         3123.2            2675 
         3123.5            2793 
         3123.8            2786 
         3124.1            2691 
         3124.4            2571 
         3124.7            2483 
           3125            2444 
         3125.3            2436 
         3125.6            2424 
         3125.9            2380 
         3126.2            2301 
         3126.5            2204 
         3126.8            2109 
         3127.1            2020 
         3127.4            1927 
         3127.7            1813 
           3128            1668 
         3128.3            1495 
         3128.6            1314 
         3128.9            1153 
         3129.2            1030 
         3129.5           952.8 
         3129.8           920.8 
         3130.1           934.3 
         3130.4           999.2 
         3130.7            1122 
           3131            1297 
         3131.3            1498 
         3131.6            1683 
         3131.9            1802 
         3132.2            1823 
         3132.5            1744 
         3132.8            1592 
         3133.1            1418 
         3133.4            1279 
         3133.7            1213 
           3134            1233 
         3134.3            1318 
         3134.6            1420 
         3134.9            1491 
         3135.2            1504 
         3135.5            1466 
         3135.8            1413 
         3136.1            1386 
         3136.4            1417 
         3136.7            1515 
           3137            1670 
         3137.3            1857 
         3137.6            2049 
         3137.9            2212 
         3138.2            2321 
         3138.5            2361 
         3138.8            2340 
         3139.1            2280 
         3139.4            2214 
         3139.7            2186 
           3140            2224 
         3140.3            2327 
         3140.6            2461 
         3140.9            2581 
         3141.2            2651 
         3141.5            2664 
         3141.8            2630 
         3142.1            2559 
         3142.4            2446 
         3142.7            2281 
           3143            2071 
         3143.3            1845 
         3143.6            1639 
         3143.9            1480 
         3144.2            1373 
         3144.5            1302 
         3144.8            1254 
         3145.1            1226 
         3145.4            1225 
         3145.7            1260 
           3146            1334 
         3146.3            1439 
         3146.6            1557 
         3146.9            1673 
         3147.2            1776 
         3147.5            1880 
         3147.8            2018 
         3148.1            2237 
         3148.4            2565 
         3148.7            3003 
           3149            3512 
         3149.3            4028 
         3149.6            4473 
         3149.9            4760 
         3150.2            4815 
         3150.5            4603 
         3150.8            4152 
         3151.1            3559 
         3151.4            2938 
         3151.7            2385 
           3152            1946 
         3152.3            1617 
         3152.6            1374 
         3152.9            1193 
         3153.2            1069 
         3153.5            1007 
         3153.8            1018 
         3154.1            1103 
         3154.4            1248 
         3154.7            1425 
           3155            1603 
         3155.3            1762 
         3155.6            1890 
         3155.9            1980 
         3156.2            2023 
         3156.5            2009 
         3156.8            1941 
         3157.1            1837 
         3157.4            1733 
         3157.7            1667 
           3158            1669 
         3158.3            1750 
         3158.6            1893 
         3158.9            2056 
         3159.2            2179 
         3159.5            2212 
         3159.8            2132 
         3160.1            1961 
         3160.4            1753 
         3160.7            1569 
           3161            1451 
         3161.3            1426 
         3161.6            1504 
         3161.9            1688 
         3162.2            1971 
         3162.5            2317 
         3162.8            2670 
         3163.1            2960 
         3163.4            3139 
         3163.7            3191 
           3164            3130 
         3164.3            2984 
         3164.6            2782 
         3164.9            2555 
         3165.2            2342 
         3165.5            2184 
         3165.8            2117 
         3166.1            2163 
         3166.4            2318 
         3166.7            2554 
           3167            2815 
         3167.3            3031 
         3167.6            3144 
         3167.9            3126 
         3168.2            3003 
         3168.5            2839 
         3168.8            2705 
         3169.1            2643 
         3169.4            2649 
         3169.7            2688 
           3170            2725 
         3170.3            2752 
         3170.6            2793 
         3170.9            2885 
         3171.2            3051 
         3171.5            3277 
         3171.8            3511 
         3172.1            3702 
         3172.4            3846 
         3172.7            4002 
           3173            4264 
         3173.3            4695 
         3173.6            5264 
         3173.9            5843 
         3174.2            6277 
         3174.5            6471 
         3174.8            6436 
         3175.1            6258 
         3175.4            6020 
         3175.7            5754 
           3176            5452 
         3176.3            5106 
         3176.6            4735 
         3176.9            4380 
         3177.2            4082 
         3177.5            3856 
         3177.8            3687 
         3178.1            3537 
