# Granada HRES Library
# atmosphere = Phoenix  (atmosphere model used)
# feh = -5  (value for [Fe/H] for the model.)
# logg = 1 log(cm/s2) (value for Log(G) for the model.)
# teff = 3000 K (value for the effective temperature for the model. Temperatures are given in K)
#
# column 1: WAVELENGTH (ANGSTROM), Wavelength in Angstrom
# column 2: FLUX (ERG/CM2/S/A), Flux in erg/cm2/s/A
         3000.2           10.63 
         3000.5           8.204 
         3000.8           6.632 
         3001.1           5.795 
         3001.4           5.454 
         3001.7           5.359 
           3002            5.37 
         3002.3           5.544 
         3002.6           6.123 
         3002.9           7.443 
         3003.2           9.798 
         3003.5           13.31 
         3003.8           17.84 
         3004.1           23.02 
         3004.4           28.31 
         3004.7           33.07 
           3005           36.75 
         3005.3           38.83 
         3005.6           38.96 
         3005.9           37.08 
         3006.2           33.45 
         3006.5           28.75 
         3006.8           23.74 
         3007.1           19.21 
         3007.4           15.71 
         3007.7           13.59 
           3008           13.04 
         3008.3           14.18 
         3008.6           17.16 
         3008.9           22.21 
         3009.2           29.43 
         3009.5           38.45 
         3009.8           48.17 
         3010.1           56.79 
         3010.4           62.45 
         3010.7           64.06 
           3011           61.85 
         3011.3           57.25 
         3011.6            52.2 
         3011.9           48.21 
         3012.2           45.92 
         3012.5            45.1 
         3012.8           45.09 
         3013.1           45.29 
         3013.4           45.42 
         3013.7           45.45 
           3014           45.37 
         3014.3           45.19 
         3014.6            44.9 
         3014.9           44.54 
         3015.2           44.05 
         3015.5           43.31 
         3015.8           42.06 
         3016.1           40.12 
         3016.4           37.43 
         3016.7           34.12 
           3017            30.5 
         3017.3           26.92 
         3017.6           23.72 
         3017.9           21.01 
         3018.2           18.64 
         3018.5           16.36 
         3018.8           13.94 
         3019.1           11.39 
         3019.4           8.858 
         3019.7           6.577 
           3020           4.754 
         3020.3           3.534 
         3020.6           3.017 
         3020.9           3.273 
         3021.2           4.333 
         3021.5           6.158 
         3021.8             8.6 
         3022.1           11.37 
         3022.4           14.05 
         3022.7           16.18 
           3023           17.38 
         3023.3            17.5 
         3023.6           16.66 
         3023.9           15.24 
         3024.2            13.7 
         3024.5           12.36 
         3024.8           11.37 
         3025.1           10.79 
         3025.4           10.69 
         3025.7           11.18 
           3026           12.33 
         3026.3           14.02 
         3026.6           15.92 
         3026.9           17.65 
         3027.2           19.04 
         3027.5            20.3 
         3027.8           21.97 
         3028.1           24.76 
         3028.4           29.06 
         3028.7           34.68 
           3029           40.76 
         3029.3           46.13 
         3029.6           49.69 
         3029.9            51.1 
         3030.2           50.95 
         3030.5           50.65 
         3030.8           51.94 
         3031.1           56.13 
         3031.4           63.37 
         3031.7           72.28 
           3032           80.19 
         3032.3           84.18 
         3032.6           82.37 
         3032.9           74.94 
         3033.2           63.94 
         3033.5           52.49 
         3033.8           43.36 
         3034.1           38.15 
         3034.4           36.91 
         3034.7           38.41 
           3035            40.8 
         3035.3           42.31 
         3035.6           41.79 
         3035.9           38.95 
         3036.2           34.27 
         3036.5           28.79 
         3036.8           23.78 
         3037.1           20.38 
         3037.4           19.45 
         3037.7           21.22 
           3038           25.36 
         3038.3           31.08 
         3038.6           37.57 
         3038.9            44.1 
         3039.2           50.12 
         3039.5           55.04 
         3039.8           58.18 
         3040.1           58.82 
         3040.4           56.72 
         3040.7           52.47 
           3041           47.42 
         3041.3           43.29 
         3041.6           41.49 
         3041.9           42.53 
         3042.2           45.85 
         3042.5           50.06 
         3042.8            53.6 
         3043.1           55.37 
         3043.4            55.1 
         3043.7           53.37 
           3044           51.11 
         3044.3           49.22 
         3044.6           48.21 
         3044.9           48.14 
         3045.2           48.59 
         3045.5           48.79 
         3045.8           47.82 
         3046.1           44.97 
         3046.4           40.07 
         3046.7           33.66 
           3047           26.88 
         3047.3           21.03 
         3047.6           17.29 
         3047.9           16.33 
         3048.2           18.28 
         3048.5           22.71 
         3048.8           28.59 
         3049.1           34.45 
         3049.4           38.77 
         3049.7           40.43 
           3050           39.28 
         3050.3           36.19 
         3050.6           32.63 
         3050.9              30 
         3051.2           29.13 
         3051.5           30.07 
         3051.8            32.2 
         3052.1            34.5 
         3052.4           35.94 
         3052.7           35.81 
           3053           33.98 
         3053.3           30.91 
         3053.6           27.55 
         3053.9           24.86 
         3054.2           23.49 
         3054.5           23.57 
         3054.8           24.68 
         3055.1           26.12 
         3055.4           27.13 
         3055.7           27.27 
           3056           26.48 
         3056.3           25.05 
         3056.6           23.37 
         3056.9            21.8 
         3057.2            20.5 
         3057.5           19.43 
         3057.8           18.44 
         3058.1           17.43 
         3058.4           16.51 
         3058.7           16.05 
           3059           16.62 
         3059.3           18.73 
         3059.6           22.57 
         3059.9           27.94 
         3060.2           34.32 
         3060.5           41.04 
         3060.8           47.48 
         3061.1           53.16 
         3061.4           57.65 
         3061.7           60.47 
           3062              61 
         3062.3           58.63 
         3062.6           53.17 
         3062.9           45.21 
         3063.2           36.08 
         3063.5           27.44 
         3063.8           20.68 
         3064.1           16.43 
         3064.4           14.52 
         3064.7            14.3 
           3065           15.06 
         3065.3           16.46 
         3065.6           18.47 
         3065.9           21.24 
         3066.2           24.71 
         3066.5           28.39 
         3066.8           31.52 
         3067.1           33.39 
         3067.4           33.75 
         3067.7           32.92 
           3068           31.51 
         3068.3              30 
         3068.6           28.52 
         3068.9            26.9 
         3069.2           24.94 
         3069.5           22.76 
         3069.8           20.97 
         3070.1           20.43 
         3070.4           21.91 
         3070.7           25.63 
           3071           31.11 
         3071.3           37.37 
         3071.6           43.39 
         3071.9           48.63 
         3072.2           53.17 
         3072.5           57.59 
         3072.8           62.46 
         3073.1              68 
         3073.4           73.85 
         3073.7           79.05 
           3074           82.51 
         3074.3           83.52 
         3074.6           82.48 
         3074.9            80.9 
         3075.2           80.91 
         3075.5           84.17 
         3075.8           90.81 
         3076.1           99.15 
         3076.4           106.3 
         3076.7           109.7 
           3077           108.2 
         3077.3           102.6 
         3077.6           94.61 
         3077.9           86.44 
         3078.2           79.36 
         3078.5           73.54 
         3078.8           68.27 
         3079.1           62.54 
         3079.4           55.69 
         3079.7           47.77 
           3080           39.41 
         3080.3           31.43 
         3080.6           24.48 
         3080.9           18.89 
         3081.2           14.75 
         3081.5           12.04 
         3081.8            10.7 
         3082.1           10.57 
         3082.4           11.34 
         3082.7           12.66 
           3083           14.29 
         3083.3           16.21 
         3083.6           18.62 
         3083.9           21.82 
         3084.2           26.02 
         3084.5           31.26 
         3084.8           37.34 
         3085.1           43.78 
         3085.4           49.81 
         3085.7           54.67 
           3086           58.16 
         3086.3           61.15 
         3086.6           65.39 
         3086.9           72.81 
         3087.2           84.36 
         3087.5           99.18 
         3087.8           114.5 
         3088.1           126.2 
         3088.4           130.7 
         3088.7           125.9 
           3089           112.4 
         3089.3           92.98 
         3089.6           71.48 
         3089.9            51.4 
         3090.2           35.03 
         3090.5           23.18 
         3090.8           15.51 
         3091.1           11.02 
         3091.4           8.618 
         3091.7           7.465 
           3092            7.12 
         3092.3           7.551 
         3092.6           8.999 
         3092.9           11.76 
         3093.2           15.96 
         3093.5           21.43 
         3093.8            27.7 
         3094.1           34.11 
         3094.4           39.93 
         3094.7           44.42 
           3095           46.99 
         3095.3            47.5 
         3095.6           46.66 
         3095.9           46.24 
         3096.2           48.85 
         3096.5           56.88 
         3096.8           71.17 
         3097.1           89.88 
         3097.4           108.5 
         3097.7           121.4 
           3098           124.1 
         3098.3           115.3 
         3098.6           97.58 
         3098.9           75.96 
         3099.2            55.7 
         3099.5           40.43 
         3099.8           31.33 
         3100.1           27.45 
         3100.4           26.78 
         3100.7           27.38 
           3101           28.32 
         3101.3           33.49 
         3101.6           40.54 
         3101.9           51.81 
         3102.2           66.81 
         3102.5           83.87 
         3102.8           100.8 
         3103.1           115.8 
         3103.4           127.8 
         3103.7           136.2 
           3104           140.3 
         3104.3           139.1 
         3104.6           131.6 
         3104.9           117.8 
         3105.2           99.85 
         3105.5           80.99 
         3105.8           64.29 
         3106.1           51.96 
         3106.4           44.86 
         3106.7            42.8 
           3107           44.84 
         3107.3           49.53 
         3107.6           54.99 
         3107.9           59.35 
         3108.2           61.44 
         3108.5           61.22 
         3108.8           59.97 
         3109.1           59.79 
         3109.4           62.92 
         3109.7           70.89 
           3110           83.95 
         3110.3           100.5 
         3110.6           117.2 
         3110.9           129.8 
         3111.2           134.6 
         3111.5             130 
         3111.8           117.1 
         3112.1           99.67 
         3112.4           81.72 
         3112.7           66.83 
           3113           57.13 
         3113.3           53.51 
         3113.6           56.17 
         3113.9           65.04 
         3114.2           79.63 
         3114.5           98.54 
         3114.8           119.1 
         3115.1           137.4 
         3115.4           149.4 
         3115.7           151.8 
           3116           144.6 
         3116.3           130.7 
         3116.6           116.1 
         3116.9           107.9 
         3117.2           110.5 
         3117.5           125.5 
         3117.8           150.4 
         3118.1           179.2 
         3118.4           205.7 
         3118.7           224.6 
           3119           233.5 
         3119.3           233.1 
         3119.6           226.7 
         3119.9           217.8 
         3120.2           208.1 
         3120.5           196.7 
         3120.8           180.9 
         3121.1           159.7 
         3121.4             135 
         3121.7           111.9 
           3122           96.18 
         3122.3           91.62 
         3122.6           97.75 
         3122.9           110.1 
         3123.2           122.2 
         3123.5             129 
         3123.8             129 
         3124.1           124.3 
         3124.4           119.4 
         3124.7             118 
           3125             121 
         3125.3           126.3 
         3125.6           129.8 
         3125.9           128.5 
         3126.2           121.8 
         3126.5           111.8 
         3126.8           100.6 
         3127.1           90.05 
         3127.4            80.5 
         3127.7            71.8 
           3128           63.84 
         3128.3           56.92 
         3128.6           51.57 
         3128.9            48.5 
         3129.2           48.38 
         3129.5           51.84 
         3129.8           59.54 
         3130.1            72.2 
         3130.4           90.37 
         3130.7           113.6 
           3131           139.2 
         3131.3           162.7 
         3131.6           178.3 
         3131.9           182.2 
         3132.2           174.1 
         3132.5           157.7 
         3132.8           138.3 
         3133.1             121 
         3133.4             109 
         3133.7           103.9 
           3134             106 
         3134.3           113.4 
         3134.6           122.5 
         3134.9           128.7 
         3135.2           128.6 
         3135.5             122 
         3135.8           112.2 
         3136.1           104.1 
         3136.4           102.4 
         3136.7           109.4 
           3137           124.9 
         3137.3           145.5 
         3137.6           166.3 
         3137.9           181.7 
         3138.2           188.7 
         3138.5           187.4 
         3138.8           181.4 
         3139.1           176.1 
         3139.4           175.9 
         3139.7           183.2 
           3140             198 
         3140.3           216.9 
         3140.6           235.2 
         3140.9           248.5 
         3141.2             255 
         3141.5           255.7 
         3141.8           253.1 
         3142.1           248.3 
         3142.4             240 
         3142.7           226.6 
           3143           208.2 
         3143.3             188 
         3143.6           170.2 
         3143.9           156.7 
         3144.2           146.8 
         3144.5           138.2 
         3144.8           128.5 
         3145.1           117.1 
         3145.4           104.9 
         3145.7           93.47 
           3146           84.56 
         3146.3           79.92 
         3146.6           81.41 
         3146.9            90.8 
         3147.2           109.4 
         3147.5           137.6 
         3147.8           173.5 
         3148.1           213.1 
         3148.4           249.3 
         3148.7           274.3 
           3149           282.8 
         3149.3           274.1 
         3149.6           252.8 
         3149.9           225.8 
         3150.2           198.2 
         3150.5           172.8 
         3150.8           149.6 
         3151.1           128.5 
         3151.4           109.9 
         3151.7           95.41 
           3152           86.17 
         3152.3           82.56 
         3152.6           83.58 
         3152.9           87.63 
         3153.2           93.64 
         3153.5           101.7 
         3153.8           112.7 
         3154.1             127 
         3154.4           142.6 
         3154.7           155.5 
           3155           161.4 
         3155.3           158.3 
         3155.6           147.9 
         3155.9           134.8 
         3156.2           124.4 
         3156.5           120.3 
         3156.8             123 
         3157.1           130.7 
         3157.4           140.6 
         3157.7           150.4 
           3158           158.9 
         3158.3           166.1 
         3158.6           171.7 
         3158.9             175 
         3159.2           174.7 
         3159.5           170.7 
         3159.8           164.7 
         3160.1           160.8 
         3160.4           163.3 
         3160.7           174.1 
           3161           191.3 
         3161.3           210.2 
         3161.6           226.6 
         3161.9           239.8 
         3162.2           251.7 
         3162.5             265 
         3162.8           280.2 
         3163.1             296 
         3163.4           310.1 
         3163.7           321.4 
           3164           329.5 
         3164.3           333.7 
         3164.6           332.9 
         3164.9           326.6 
         3165.2           316.3 
         3165.5           307.1 
         3165.8           305.8 
         3166.1           318.6 
         3166.4           348.7 
         3166.7           393.6 
           3167           444.5 
         3167.3           488.2 
         3167.6             512 
         3167.9           509.3 
         3168.2           483.2 
         3168.5           445.9 
         3168.8           411.7 
         3169.1           389.7 
         3169.4           379.4 
         3169.7           373.1 
           3170           362.4 
         3170.3           343.5 
         3170.6           319.5 
         3170.9           297.7 
         3171.2           284.7 
         3171.5           282.3 
         3171.8           286.5 
         3172.1           290.6 
         3172.4           289.4 
         3172.7             282 
           3173             273 
         3173.3             270 
         3173.6           279.4 
         3173.9           303.5 
         3174.2           339.8 
         3174.5           382.1 
         3174.8           423.2 
         3175.1           456.2 
         3175.4           475.1 
         3175.7             476 
           3176           457.8 
         3176.3             424 
         3176.6           381.8 
         3176.9           340.9 
         3177.2           310.9 
         3177.5           298.5 
         3177.8           304.5 
         3178.1           323.3 
