# Granada HRES Library
# atmosphere = Spectrum  (atmosphere model used)
# feh = -10  (value for [Fe/H] for the model.)
# logg = 2.5 log(cm/s2) (value for Log(G) for the model.)
# teff = 5250 K (value for the effective temperature for the model. Temperatures are given in K)
#
# column 1: WAVELENGTH (ANGSTROM), Wavelength in Angstrom
# column 2: FLUX (ERG/CM2/S/A), Flux in erg/cm2/s/A
         3000.2          835300 
         3000.5          845000 
         3000.8          856000 
         3001.1          867200 
         3001.4          877100 
         3001.7          886300 
           3002          897000 
         3002.3          913900 
         3002.6          942700 
         3002.9          989000 
         3003.2        1.056e+6 
         3003.5        1.142e+6 
         3003.8        1.244e+6 
         3004.1        1.352e+6 
         3004.4        1.457e+6 
         3004.7        1.548e+6 
           3005        1.617e+6 
         3005.3        1.657e+6 
         3005.6        1.667e+6 
         3005.9        1.648e+6 
         3006.2        1.602e+6 
         3006.5        1.539e+6 
         3006.8        1.466e+6 
         3007.1        1.393e+6 
         3007.4        1.331e+6 
         3007.7        1.287e+6 
           3008        1.268e+6 
         3008.3        1.278e+6 
         3008.6        1.317e+6 
         3008.9        1.382e+6 
         3009.2        1.467e+6 
         3009.5        1.563e+6 
         3009.8        1.658e+6 
         3010.1         1.74e+6 
         3010.4          1.8e+6 
         3010.7        1.831e+6 
           3011        1.834e+6 
         3011.3        1.814e+6 
         3011.6         1.78e+6 
         3011.9        1.741e+6 
         3012.2        1.703e+6 
         3012.5        1.671e+6 
         3012.8        1.645e+6 
         3013.1        1.624e+6 
         3013.4        1.607e+6 
         3013.7        1.593e+6 
           3014         1.58e+6 
         3014.3         1.57e+6 
         3014.6        1.562e+6 
         3014.9        1.556e+6 
         3015.2        1.551e+6 
         3015.5        1.547e+6 
         3015.8        1.541e+6 
         3016.1        1.533e+6 
         3016.4         1.52e+6 
         3016.7        1.501e+6 
           3017        1.473e+6 
         3017.3        1.436e+6 
         3017.6        1.389e+6 
         3017.9         1.33e+6 
         3018.2        1.258e+6 
         3018.5        1.174e+6 
         3018.8        1.078e+6 
         3019.1          975900 
         3019.4          873000 
         3019.7          778800 
           3020          704000 
         3020.3          660000 
         3020.6          657100 
         3020.9          701500 
         3021.2          792700 
         3021.5          923200 
         3021.8        1.079e+6 
         3022.1        1.243e+6 
         3022.4        1.395e+6 
         3022.7         1.52e+6 
           3023        1.607e+6 
         3023.3        1.652e+6 
         3023.6        1.656e+6 
         3023.9        1.625e+6 
         3024.2        1.567e+6 
         3024.5        1.494e+6 
         3024.8        1.414e+6 
         3025.1        1.343e+6 
         3025.4        1.291e+6 
         3025.7        1.271e+6 
           3026         1.29e+6 
         3026.3        1.347e+6 
         3026.6        1.436e+6 
         3026.9        1.543e+6 
         3027.2        1.653e+6 
         3027.5         1.75e+6 
         3027.8        1.822e+6 
         3028.1        1.863e+6 
         3028.4        1.872e+6 
         3028.7        1.852e+6 
           3029        1.809e+6 
         3029.3        1.752e+6 
         3029.6         1.69e+6 
         3029.9        1.629e+6 
         3030.2        1.576e+6 
         3030.5        1.535e+6 
         3030.8         1.51e+6 
         3031.1        1.503e+6 
         3031.4        1.515e+6 
         3031.7        1.541e+6 
           3032        1.579e+6 
         3032.3        1.622e+6 
         3032.6        1.664e+6 
         3032.9        1.703e+6 
         3033.2        1.738e+6 
         3033.5        1.771e+6 
         3033.8        1.804e+6 
         3034.1        1.837e+6 
         3034.4        1.867e+6 
         3034.7        1.889e+6 
           3035        1.893e+6 
         3035.3         1.87e+6 
         3035.6        1.815e+6 
         3035.9        1.727e+6 
         3036.2        1.611e+6 
         3036.5        1.481e+6 
         3036.8        1.353e+6 
         3037.1        1.247e+6 
         3037.4        1.178e+6 
         3037.7        1.152e+6 
           3038        1.173e+6 
         3038.3        1.231e+6 
         3038.6        1.313e+6 
         3038.9        1.403e+6 
         3039.2        1.486e+6 
         3039.5        1.549e+6 
         3039.8        1.584e+6 
         3040.1         1.59e+6 
         3040.4        1.571e+6 
         3040.7        1.534e+6 
           3041        1.489e+6 
         3041.3        1.447e+6 
         3041.6        1.418e+6 
         3041.9        1.408e+6 
         3042.2        1.422e+6 
         3042.5        1.455e+6 
         3042.8        1.504e+6 
         3043.1        1.557e+6 
         3043.4        1.608e+6 
         3043.7        1.651e+6 
           3044        1.682e+6 
         3044.3        1.701e+6 
         3044.6        1.711e+6 
         3044.9         1.71e+6 
         3045.2        1.696e+6 
         3045.5        1.669e+6 
         3045.8        1.624e+6 
         3046.1        1.561e+6 
         3046.4        1.486e+6 
         3046.7        1.408e+6 
           3047         1.34e+6 
         3047.3        1.296e+6 
         3047.6        1.286e+6 
         3047.9         1.31e+6 
         3048.2        1.365e+6 
         3048.5        1.439e+6 
         3048.8        1.517e+6 
         3049.1        1.587e+6 
         3049.4        1.641e+6 
         3049.7         1.68e+6 
           3050        1.709e+6 
         3050.3        1.739e+6 
         3050.6        1.777e+6 
         3050.9         1.83e+6 
         3051.2        1.893e+6 
         3051.5        1.956e+6 
         3051.8        2.006e+6 
         3052.1         2.03e+6 
         3052.4         2.02e+6 
         3052.7        1.978e+6 
           3053        1.911e+6 
         3053.3        1.834e+6 
         3053.6        1.764e+6 
         3053.9        1.714e+6 
         3054.2        1.693e+6 
         3054.5          1.7e+6 
         3054.8        1.729e+6 
         3055.1        1.765e+6 
         3055.4        1.793e+6 
         3055.7        1.799e+6 
           3056        1.772e+6 
         3056.3        1.713e+6 
         3056.6        1.625e+6 
         3056.9        1.521e+6 
         3057.2        1.415e+6 
         3057.5        1.318e+6 
         3057.8         1.24e+6 
         3058.1        1.187e+6 
         3058.4        1.162e+6 
         3058.7        1.165e+6 
           3059        1.198e+6 
         3059.3        1.261e+6 
         3059.6         1.35e+6 
         3059.9        1.457e+6 
         3060.2        1.572e+6 
         3060.5         1.68e+6 
         3060.8         1.77e+6 
         3061.1        1.831e+6 
         3061.4        1.857e+6 
         3061.7        1.849e+6 
           3062        1.808e+6 
         3062.3        1.741e+6 
         3062.6        1.655e+6 
         3062.9        1.559e+6 
         3063.2        1.465e+6 
         3063.5        1.379e+6 
         3063.8        1.309e+6 
         3064.1        1.258e+6 
         3064.4        1.223e+6 
         3064.7        1.201e+6 
           3065        1.184e+6 
         3065.3        1.163e+6 
         3065.6        1.137e+6 
         3065.9        1.104e+6 
         3066.2         1.07e+6 
         3066.5         1.04e+6 
         3066.8        1.023e+6 
         3067.1        1.026e+6 
         3067.4        1.053e+6 
         3067.7        1.104e+6 
           3068        1.175e+6 
         3068.3         1.26e+6 
         3068.6         1.35e+6 
         3068.9        1.434e+6 
         3069.2        1.506e+6 
         3069.5         1.56e+6 
         3069.8        1.596e+6 
         3070.1        1.615e+6 
         3070.4        1.622e+6 
         3070.7        1.619e+6 
           3071         1.61e+6 
         3071.3          1.6e+6 
         3071.6         1.59e+6 
         3071.9        1.585e+6 
         3072.2         1.59e+6 
         3072.5        1.608e+6 
         3072.8        1.638e+6 
         3073.1        1.673e+6 
         3073.4        1.705e+6 
         3073.7        1.725e+6 
           3074        1.727e+6 
         3074.3        1.709e+6 
         3074.6        1.677e+6 
         3074.9        1.641e+6 
         3075.2        1.614e+6 
         3075.5        1.605e+6 
         3075.8        1.617e+6 
         3076.1        1.646e+6 
         3076.4        1.682e+6 
         3076.7        1.714e+6 
           3077        1.731e+6 
         3077.3         1.73e+6 
         3077.6        1.714e+6 
         3077.9         1.69e+6 
         3078.2        1.667e+6 
         3078.5        1.652e+6 
         3078.8        1.648e+6 
         3079.1        1.653e+6 
         3079.4        1.659e+6 
         3079.7        1.661e+6 
           3080        1.651e+6 
         3080.3        1.627e+6 
         3080.6         1.59e+6 
         3080.9        1.546e+6 
         3081.2        1.501e+6 
         3081.5        1.462e+6 
         3081.8        1.436e+6 
         3082.1        1.427e+6 
         3082.4        1.437e+6 
         3082.7        1.467e+6 
           3083        1.515e+6 
         3083.3         1.58e+6 
         3083.6        1.657e+6 
         3083.9         1.74e+6 
         3084.2        1.821e+6 
         3084.5        1.891e+6 
         3084.8        1.941e+6 
         3085.1        1.962e+6 
         3085.4         1.95e+6 
         3085.7        1.903e+6 
           3086        1.826e+6 
         3086.3        1.726e+6 
         3086.6        1.617e+6 
         3086.9        1.512e+6 
         3087.2        1.424e+6 
         3087.5        1.361e+6 
         3087.8        1.326e+6 
         3088.1        1.313e+6 
         3088.4        1.314e+6 
         3088.7        1.318e+6 
           3089        1.316e+6 
         3089.3        1.306e+6 
         3089.6         1.29e+6 
         3089.9        1.274e+6 
         3090.2        1.262e+6 
         3090.5        1.259e+6 
         3090.8        1.265e+6 
         3091.1        1.274e+6 
         3091.4        1.282e+6 
         3091.7        1.282e+6 
           3092        1.273e+6 
         3092.3        1.256e+6 
         3092.6        1.237e+6 
         3092.9        1.224e+6 
         3093.2        1.225e+6 
         3093.5        1.241e+6 
         3093.8        1.272e+6 
         3094.1         1.31e+6 
         3094.4        1.347e+6 
         3094.7        1.373e+6 
           3095        1.383e+6 
         3095.3        1.374e+6 
         3095.6         1.35e+6 
         3095.9        1.316e+6 
         3096.2        1.282e+6 
         3096.5        1.256e+6 
         3096.8        1.243e+6 
         3097.1        1.243e+6 
         3097.4        1.249e+6 
         3097.7        1.253e+6 
           3098        1.244e+6 
         3098.3        1.214e+6 
         3098.6        1.161e+6 
         3098.9        1.089e+6 
         3099.2        1.004e+6 
         3099.5          919900 
         3099.8          846100 
         3100.1          791900 
         3100.4          763600 
         3100.7          763800 
           3101          793800 
         3101.3          852300 
         3101.6          936700 
         3101.9        1.042e+6 
         3102.2         1.16e+6 
         3102.5        1.281e+6 
         3102.8        1.395e+6 
         3103.1        1.491e+6 
         3103.4         1.56e+6 
         3103.7        1.599e+6 
           3104        1.608e+6 
         3104.3        1.592e+6 
         3104.6         1.56e+6 
         3104.9        1.524e+6 
         3105.2        1.495e+6 
         3105.5        1.484e+6 
         3105.8        1.495e+6 
         3106.1        1.529e+6 
         3106.4        1.582e+6 
         3106.7        1.646e+6 
           3107        1.713e+6 
         3107.3        1.773e+6 
         3107.6        1.821e+6 
         3107.9        1.851e+6 
         3108.2        1.862e+6 
         3108.5        1.856e+6 
         3108.8        1.837e+6 
         3109.1         1.81e+6 
         3109.4        1.782e+6 
         3109.7         1.76e+6 
           3110         1.75e+6 
         3110.3        1.754e+6 
         3110.6        1.771e+6 
         3110.9        1.798e+6 
         3111.2         1.83e+6 
         3111.5        1.861e+6 
         3111.8        1.883e+6 
         3112.1        1.893e+6 
         3112.4        1.888e+6 
         3112.7        1.867e+6 
           3113        1.834e+6 
         3113.3        1.794e+6 
         3113.6        1.755e+6 
         3113.9        1.726e+6 
         3114.2        1.715e+6 
         3114.5        1.724e+6 
         3114.8        1.751e+6 
         3115.1        1.788e+6 
         3115.4        1.823e+6 
         3115.7        1.842e+6 
           3116        1.835e+6 
         3116.3        1.797e+6 
         3116.6        1.731e+6 
         3116.9        1.646e+6 
         3117.2        1.553e+6 
         3117.5        1.465e+6 
         3117.8        1.389e+6 
         3118.1        1.332e+6 
         3118.4        1.294e+6 
         3118.7        1.273e+6 
           3119        1.266e+6 
         3119.3         1.27e+6 
         3119.6         1.28e+6 
         3119.9        1.294e+6 
         3120.2        1.309e+6 
         3120.5        1.321e+6 
         3120.8        1.327e+6 
         3121.1        1.325e+6 
         3121.4        1.318e+6 
         3121.7        1.311e+6 
           3122        1.311e+6 
         3122.3        1.321e+6 
         3122.6        1.345e+6 
         3122.9        1.379e+6 
         3123.2        1.417e+6 
         3123.5        1.451e+6 
         3123.8        1.472e+6 
         3124.1        1.477e+6 
         3124.4        1.469e+6 
         3124.7        1.452e+6 
           3125        1.438e+6 
         3125.3        1.435e+6 
         3125.6        1.449e+6 
         3125.9        1.483e+6 
         3126.2         1.53e+6 
         3126.5        1.582e+6 
         3126.8        1.628e+6 
         3127.1        1.661e+6 
         3127.4        1.674e+6 
         3127.7        1.668e+6 
           3128        1.648e+6 
         3128.3         1.62e+6 
         3128.6         1.59e+6 
         3128.9        1.562e+6 
         3129.2        1.537e+6 
         3129.5        1.512e+6 
         3129.8        1.488e+6 
         3130.1        1.465e+6 
         3130.4        1.443e+6 
         3130.7        1.426e+6 
           3131        1.416e+6 
         3131.3        1.411e+6 
         3131.6        1.411e+6 
         3131.9        1.413e+6 
         3132.2        1.414e+6 
         3132.5        1.411e+6 
         3132.8        1.404e+6 
         3133.1        1.395e+6 
         3133.4        1.386e+6 
         3133.7        1.384e+6 
           3134        1.392e+6 
         3134.3        1.414e+6 
         3134.6        1.449e+6 
         3134.9        1.491e+6 
         3135.2        1.533e+6 
         3135.5         1.57e+6 
         3135.8        1.596e+6 
         3136.1        1.613e+6 
         3136.4        1.625e+6 
         3136.7        1.634e+6 
           3137        1.643e+6 
         3137.3        1.652e+6 
         3137.6         1.66e+6 
         3137.9        1.663e+6 
         3138.2        1.663e+6 
         3138.5         1.66e+6 
         3138.8        1.656e+6 
         3139.1        1.657e+6 
         3139.4        1.664e+6 
         3139.7         1.68e+6 
           3140        1.702e+6 
         3140.3        1.727e+6 
         3140.6        1.752e+6 
         3140.9        1.768e+6 
         3141.2        1.769e+6 
         3141.5        1.748e+6 
         3141.8        1.699e+6 
         3142.1        1.621e+6 
         3142.4        1.513e+6 
         3142.7        1.382e+6 
           3143        1.236e+6 
         3143.3        1.087e+6 
         3143.6          949800 
         3143.9          837700 
         3144.2          760700 
         3144.5          725100 
         3144.8          730900 
         3145.1          772700 
         3145.4          840900 
         3145.7          923600 
           3146         1.01e+6 
         3146.3        1.091e+6 
         3146.6        1.164e+6 
         3146.9         1.23e+6 
         3147.2        1.291e+6 
         3147.5        1.352e+6 
         3147.8        1.414e+6 
         3148.1        1.476e+6 
         3148.4        1.535e+6 
         3148.7         1.59e+6 
           3149        1.636e+6 
         3149.3        1.673e+6 
         3149.6        1.702e+6 
         3149.9        1.726e+6 
         3150.2        1.744e+6 
         3150.5        1.757e+6 
         3150.8        1.762e+6 
         3151.1         1.76e+6 
         3151.4        1.753e+6 
         3151.7        1.743e+6 
           3152        1.736e+6 
         3152.3        1.734e+6 
         3152.6        1.739e+6 
         3152.9        1.747e+6 
         3153.2        1.753e+6 
         3153.5        1.754e+6 
         3153.8        1.744e+6 
         3154.1        1.725e+6 
         3154.4        1.697e+6 
         3154.7        1.663e+6 
           3155        1.626e+6 
         3155.3        1.584e+6 
         3155.6        1.535e+6 
         3155.9        1.479e+6 
         3156.2        1.413e+6 
         3156.5        1.338e+6 
         3156.8        1.259e+6 
         3157.1        1.183e+6 
         3157.4        1.117e+6 
         3157.7        1.066e+6 
           3158        1.035e+6 
         3158.3        1.024e+6 
         3158.6        1.029e+6 
         3158.9        1.045e+6 
         3159.2        1.066e+6 
         3159.5        1.083e+6 
         3159.8        1.093e+6 
         3160.1        1.092e+6 
         3160.4        1.081e+6 
         3160.7        1.065e+6 
           3161        1.052e+6 
         3161.3        1.048e+6 
         3161.6        1.059e+6 
         3161.9        1.089e+6 
         3162.2        1.135e+6 
         3162.5        1.191e+6 
         3162.8        1.251e+6 
         3163.1        1.304e+6 
         3163.4        1.344e+6 
         3163.7        1.368e+6 
           3164        1.377e+6 
         3164.3        1.376e+6 
         3164.6        1.374e+6 
         3164.9        1.377e+6 
         3165.2        1.391e+6 
         3165.5        1.417e+6 
         3165.8        1.454e+6 
         3166.1        1.496e+6 
         3166.4        1.535e+6 
         3166.7        1.565e+6 
           3167        1.579e+6 
         3167.3        1.574e+6 
         3167.6        1.551e+6 
         3167.9        1.516e+6 
         3168.2        1.477e+6 
         3168.5        1.447e+6 
         3168.8        1.433e+6 
         3169.1        1.444e+6 
         3169.4        1.481e+6 
         3169.7         1.54e+6 
           3170        1.614e+6 
         3170.3        1.694e+6 
         3170.6         1.77e+6 
         3170.9        1.837e+6 
         3171.2        1.892e+6 
         3171.5        1.932e+6 
         3171.8        1.956e+6 
         3172.1        1.964e+6 
         3172.4        1.957e+6 
         3172.7        1.935e+6 
           3173          1.9e+6 
         3173.3        1.858e+6 
         3173.6        1.813e+6 
         3173.9        1.773e+6 
         3174.2        1.743e+6 
         3174.5        1.729e+6 
         3174.8        1.734e+6 
         3175.1        1.759e+6 
         3175.4          1.8e+6 
         3175.7        1.851e+6 
           3176        1.902e+6 
         3176.3        1.942e+6 
         3176.6        1.964e+6 
         3176.9        1.963e+6 
         3177.2        1.939e+6 
         3177.5        1.895e+6 
         3177.8        1.837e+6 
         3178.1        1.771e+6 
