# Granada HRES Library
# atmosphere = Phoenix  (atmosphere model used)
# feh = -10  (value for [Fe/H] for the model.)
# logg = 1 log(cm/s2) (value for Log(G) for the model.)
# teff = 4000 K (value for the effective temperature for the model. Temperatures are given in K)
#
# column 1: WAVELENGTH (ANGSTROM), Wavelength in Angstrom
# column 2: FLUX (ERG/CM2/S/A), Flux in erg/cm2/s/A
         3000.2           703.6 
         3000.5           621.4 
         3000.8             568 
         3001.1           540.9 
         3001.4           530.8 
         3001.7           526.1 
           3002             522 
         3002.3             526 
         3002.6           557.7 
         3002.9           642.2 
         3003.2           799.5 
         3003.5            1036 
         3003.8            1343 
         3004.1            1692 
         3004.4            2046 
         3004.7            2369 
           3005            2623 
         3005.3            2783 
         3005.6            2828 
         3005.9            2749 
         3006.2            2554 
         3006.5            2270 
         3006.8            1937 
         3007.1            1610 
         3007.4            1338 
         3007.7            1161 
           3008            1094 
         3008.3            1141 
         3008.6            1290 
         3008.9            1523 
         3009.2            1821 
         3009.5            2158 
         3009.8            2485 
         3010.1            2745 
         3010.4            2884 
         3010.7            2885 
           3011            2777 
         3011.3            2635 
         3011.6            2541 
         3011.9            2544 
         3012.2            2640 
         3012.5            2774 
         3012.8            2872 
         3013.1            2886 
         3013.4            2805 
         3013.7            2662 
           3014            2507 
         3014.3            2385 
         3014.6            2314 
         3014.9            2295 
         3015.2            2308 
         3015.5            2328 
         3015.8            2336 
         3016.1            2319 
         3016.4            2269 
         3016.7            2179 
           3017            2048 
         3017.3            1889 
         3017.6            1718 
         3017.9            1550 
         3018.2            1390 
         3018.5            1232 
         3018.8            1069 
         3019.1           900.7 
         3019.4           734.5 
         3019.7           581.5 
           3020           454.7 
         3020.3           366.3 
         3020.6           328.2 
         3020.9           348.4 
         3021.2           430.1 
         3021.5           567.6 
         3021.8           745.4 
         3022.1           938.8 
         3022.4            1118 
         3022.7            1252 
           3023            1321 
         3023.3            1323 
         3023.6            1273 
         3023.9            1198 
         3024.2            1125 
         3024.5            1066 
         3024.8            1019 
         3025.1           982.4 
         3025.4           961.6 
         3025.7           975.9 
           3026            1047 
         3026.3            1183 
         3026.6            1375 
         3026.9            1598 
         3027.2            1834 
         3027.5            2075 
         3027.8            2333 
         3028.1            2624 
         3028.4            2949 
         3028.7            3280 
           3029            3564 
         3029.3            3734 
         3029.6            3740 
         3029.9            3579 
         3030.2            3307 
         3030.5            3029 
         3030.8            2873 
         3031.1            2949 
         3031.4            3293 
         3031.7            3844 
           3032            4451 
         3032.3            4923 
         3032.6            5107 
         3032.9            4951 
         3033.2            4521 
         3033.5            3961 
         3033.8            3436 
         3034.1            3065 
         3034.4            2888 
         3034.7            2867 
           3035            2905 
         3035.3            2901 
         3035.6            2787 
         3035.9            2547 
         3036.2            2213 
         3036.5            1846 
         3036.8            1512 
         3037.1            1264 
         3037.4            1139 
         3037.7            1144 
           3038            1264 
         3038.3            1470 
         3038.6            1730 
         3038.9            2012 
         3039.2            2287 
         3039.5            2525 
         3039.8            2694 
         3040.1            2770 
         3040.4            2747 
         3040.7            2640 
           3041            2482 
         3041.3            2319 
         3041.6            2205 
         3041.9            2185 
         3042.2            2274 
         3042.5            2465 
         3042.8            2726 
         3043.1            3018 
         3043.4            3313 
         3043.7            3590 
           3044            3823 
         3044.3            3985 
         3044.6            4049 
         3044.9            4008 
         3045.2            3868 
         3045.5            3644 
         3045.8            3345 
         3046.1            2975 
         3046.4            2548 
         3046.7            2101 
           3047            1684 
         3047.3            1360 
         3047.6            1177 
         3047.9            1159 
         3048.2            1300 
         3048.5            1569 
         3048.8            1908 
         3049.1            2237 
         3049.4            2478 
         3049.7            2580 
           3050            2544 
         3050.3            2426 
         3050.6            2316 
         3050.9            2296 
         3051.2            2409 
         3051.5            2644 
         3051.8            2938 
         3052.1            3201 
         3052.4            3343 
         3052.7            3307 
           3053            3096 
         3053.3            2771 
         3053.6            2420 
         3053.9            2129 
         3054.2            1949 
         3054.5            1894 
         3054.8            1938 
         3055.1            2034 
         3055.4            2125 
         3055.7            2166 
           3056            2129 
         3056.3            2015 
         3056.6            1849 
         3056.9            1663 
         3057.2            1487 
         3057.5            1338 
         3057.8            1219 
         3058.1            1123 
         3058.4            1051 
         3058.7            1020 
           3059            1063 
         3059.3            1220 
         3059.6            1516 
         3059.9            1953 
         3060.2            2502 
         3060.5            3113 
         3060.8            3725 
         3061.1            4284 
         3061.4            4748 
         3061.7            5072 
           3062            5206 
         3062.3            5099 
         3062.6            4725 
         3062.9            4122 
         3063.2            3394 
         3063.5            2687 
         3063.8            2133 
         3064.1            1806 
         3064.4            1705 
         3064.7            1767 
           3065            1899 
         3065.3            2017 
         3065.6            2069 
         3065.9            2051 
         3066.2            1998 
         3066.5            1970 
         3066.8            2028 
         3067.1            2222 
         3067.4            2591 
         3067.7            3147 
           3068            3859 
         3068.3            4628 
         3068.6            5296 
         3068.9            5699 
         3069.2            5728 
         3069.5            5407 
         3069.8            4891 
         3070.1            4409 
         3070.4            4161 
         3070.7            4233 
           3071            4574 
         3071.3            5041 
         3071.6            5477 
         3071.9            5776 
         3072.2            5915 
         3072.5            5925 
         3072.8            5855 
         3073.1            5751 
         3073.4            5649 
         3073.7            5572 
           3074            5523 
         3074.3            5497 
         3074.6            5507 
         3074.9            5618 
         3075.2            5951 
         3075.5            6624 
         3075.8            7648 
         3076.1            8870 
         3076.4            9981 
         3076.7           10650 
           3077           10680 
         3077.3           10080 
         3077.6            9076 
         3077.9            7967 
         3078.2            7027 
         3078.5            6394 
         3078.8            6060 
         3079.1            5909 
         3079.4            5783 
         3079.7            5554 
           3080            5161 
         3080.3            4615 
         3080.6            3995 
         3080.9            3420 
         3081.2            3011 
         3081.5            2851 
         3081.8            2960 
         3082.1            3275 
         3082.4            3679 
         3082.7            4052 
           3083            4334 
         3083.3            4545 
         3083.6            4759 
         3083.9            5036 
         3084.2            5373 
         3084.5            5707 
         3084.8            5958 
         3085.1            6078 
         3085.4            6060 
         3085.7            5934 
           3086            5768 
         3086.3            5657 
         3086.6            5707 
         3086.9            6000 
         3087.2            6558 
         3087.5            7323 
         3087.8            8151 
         3088.1            8828 
         3088.4            9131 
         3088.7            8913 
           3089            8184 
         3089.3            7124 
         3089.6            6002 
         3089.9            5039 
         3090.2            4321 
         3090.5            3796 
         3090.8            3357 
         3091.1            2925 
         3091.4            2490 
         3091.7            2095 
           3092            1802 
         3092.3            1661 
         3092.6            1695 
         3092.9            1886 
         3093.2            2182 
         3093.5            2504 
         3093.8            2775 
         3094.1            2942 
         3094.4            2991 
         3094.7            2939 
           3095            2820 
         3095.3            2676 
         3095.6            2558 
         3095.9            2538 
         3096.2            2713 
         3096.5            3175 
         3096.8            3958 
         3097.1            4984 
         3097.4            6042 
         3097.7            6840 
           3098            7123 
         3098.3            6785 
         3098.6            5922 
         3098.9            4773 
         3099.2            3621 
         3099.5            2677 
         3099.8            2039 
         3100.1            1689 
         3100.4            1554 
         3100.7            1551 
           3101            1643 
         3101.3            2256 
         3101.6            2933 
         3101.9            3911 
         3102.2            5132 
         3102.5            6458 
         3102.8            7729 
         3103.1            8828 
         3103.4            9708 
         3103.7           10350 
           3104           10690 
         3104.3           10620 
         3104.6           10020 
         3104.9            8910 
         3105.2            7457 
         3105.5            5957 
         3105.8            4705 
         3106.1            3895 
         3106.4            3583 
         3106.7            3712 
           3107            4157 
         3107.3            4763 
         3107.6            5379 
         3107.9            5877 
         3108.2            6176 
         3108.5            6274 
         3108.8            6252 
         3109.1            6276 
         3109.4            6555 
         3109.7            7286 
           3110            8563 
         3110.3           10300 
         3110.6           12260 
         3110.9           14020 
         3111.2           15180 
         3111.5           15470 
         3111.8           14840 
         3112.1           13500 
         3112.4           11770 
         3112.7           10040 
           3113            8675 
         3113.3            7950 
         3113.6            8027 
         3113.9            8916 
         3114.2           10450 
         3114.5           12330 
         3114.8           14130 
         3115.1           15410 
         3115.4           15870 
         3115.7           15310 
           3116           13840 
         3116.3           11740 
         3116.6            9478 
         3116.9            7498 
         3117.2            6119 
         3117.5            5437 
         3117.8            5345 
         3118.1            5609 
         3118.4            5982 
         3118.7            6293 
           3119            6501 
         3119.3            6676 
         3119.6            6936 
         3119.9            7331 
         3120.2            7774 
         3120.5            8055 
         3120.8            7958 
         3121.1            7396 
         3121.4            6495 
         3121.7            5550 
           3122            4907 
         3122.3            4833 
         3122.6            5423 
         3122.9            6573 
         3123.2            8012 
         3123.5            9381 
         3123.8           10350 
         3124.1           10740 
         3124.4           10580 
         3124.7           10080 
           3125            9487 
         3125.3            9025 
         3125.6            8787 
         3125.9            8770 
         3126.2            8900 
         3126.5            9047 
         3126.8            9045 
         3127.1            8745 
         3127.4            8096 
         3127.7            7184 
           3128            6208 
         3128.3            5385 
         3128.6            4869 
         3128.9            4695 
         3129.2            4787 
         3129.5            5004 
         3129.8            5218 
         3130.1            5369 
         3130.4            5475 
         3130.7            5589 
           3131            5741 
         3131.3            5889 
         3131.6            5933 
         3131.9            5779 
         3132.2            5403 
         3132.5            4877 
         3132.8            4352 
         3133.1            4019 
         3133.4            4057 
         3133.7            4585 
           3134            5600 
         3134.3            6927 
         3134.6            8239 
         3134.9            9163 
         3135.2            9452 
         3135.5            9113 
         3135.8            8397 
         3136.1            7675 
         3136.4            7291 
         3136.7            7442 
           3137            8159 
         3137.3            9320 
         3137.6           10690 
         3137.9           12000 
         3138.2           12990 
         3138.5           13530 
         3138.8           13610 
         3139.1           13340 
         3139.4           12920 
         3139.7           12590 
           3140           12480 
         3140.3           12630 
         3140.6           12910 
         3140.9           13140 
         3141.2           13200 
         3141.5           13100 
         3141.8           12900 
         3142.1           12590 
         3142.4           12090 
         3142.7           11270 
           3143           10100 
         3143.3            8724 
         3143.6            7383 
         3143.9            6313 
         3144.2            5647 
         3144.5            5413 
         3144.8            5559 
         3145.1            5981 
         3145.4            6527 
         3145.7            7015 
           3146            7299 
         3146.3            7344 
         3146.6            7264 
         3146.9            7287 
         3147.2            7686 
         3147.5            8692 
         3147.8           10420 
         3148.1           12780 
         3148.4           15430 
         3148.7           17890 
           3149           19700 
         3149.3           20630 
         3149.6           20750 
         3149.9           20300 
         3150.2           19500 
         3150.5           18440 
         3150.8           17080 
         3151.1           15400 
         3151.4           13470 
         3151.7           11450 
           3152            9614 
         3152.3            8143 
         3152.6            7125 
         3152.9            6525 
         3153.2            6247 
         3153.5            6209 
         3153.8            6396 
         3154.1            6826 
         3154.4            7470 
         3154.7            8185 
           3155            8751 
         3155.3            8964 
         3155.6            8755 
         3155.9            8221 
         3156.2            7568 
         3156.5            7016 
         3156.8            6718 
         3157.1            6720 
         3157.4            6977 
         3157.7            7391 
           3158            7859 
         3158.3            8303 
         3158.6            8664 
         3158.9            8877 
         3159.2            8869 
         3159.5            8588 
         3159.8            8057 
         3160.1            7391 
         3160.4            6785 
         3160.7            6456 
           3161            6580 
         3161.3            7265 
         3161.6            8532 
         3161.9           10290 
         3162.2           12330 
         3162.5           14270 
         3162.8           15660 
         3163.1           16160 
         3163.4           15650 
         3163.7           14380 
           3164           12760 
         3164.3           11250 
         3164.6           10170 
         3164.9            9664 
         3165.2            9759 
         3165.5           10450 
         3165.8           11740 
         3166.1           13600 
         3166.4           15860 
         3166.7           18240 
           3167           20260 
         3167.3           21450 
         3167.6           21510 
         3167.9           20440 
         3168.2           18630 
         3168.5           16680 
         3168.8           15180 
         3169.1           14480 
         3169.4           14660 
         3169.7           15610 
           3170           17110 
         3170.3           18970 
         3170.6           21030 
         3170.9           23100 
         3171.2           25030 
         3171.5           26580 
         3171.8           27440 
         3172.1           27380 
         3172.4           26420 
         3172.7           24910 
           3173           23550 
         3173.3           23050 
         3173.6           23820 
         3173.9           25780 
         3174.2           28530 
         3174.5           31560 
         3174.8           34610 
         3175.1           37490 
         3175.4           40010 
         3175.7           41780 
           3176           42330 
         3176.3           41310 
         3176.6           38720 
         3176.9           35110 
         3177.2           31350 
         3177.5           28340 
         3177.8           26520 
         3178.1           25760 
