# Granada HRES Library
# atmosphere = Phoenix  (atmosphere model used)
# feh = -5  (value for [Fe/H] for the model.)
# logg = 0 log(cm/s2) (value for Log(G) for the model.)
# teff = 3000 K (value for the effective temperature for the model. Temperatures are given in K)
#
# column 1: WAVELENGTH (ANGSTROM), Wavelength in Angstrom
# column 2: FLUX (ERG/CM2/S/A), Flux in erg/cm2/s/A
         3000.2           3.213 
         3000.5           2.531 
         3000.8           2.076 
         3001.1           1.826 
         3001.4            1.72 
         3001.7           1.689 
           3002           1.694 
         3002.3           1.754 
         3002.6           1.938 
         3002.9           2.347 
         3003.2           3.062 
         3003.5           4.118 
         3003.8           5.473 
         3004.1           7.012 
         3004.4           8.571 
         3004.7            9.98 
           3005           11.06 
         3005.3            11.7 
         3005.6           11.78 
         3005.9            11.3 
         3006.2           10.32 
         3006.5           8.995 
         3006.8           7.535 
         3007.1           6.156 
         3007.4           5.043 
         3007.7           4.331 
           3008             4.1 
         3008.3            4.39 
         3008.6           5.227 
         3008.9           6.633 
         3009.2           8.599 
         3009.5              11 
         3009.8           13.58 
         3010.1           15.85 
         3010.4           17.39 
         3010.7           17.93 
           3011           17.51 
         3011.3           16.49 
         3011.6           15.32 
         3011.9           14.42 
         3012.2           13.94 
         3012.5           13.83 
         3012.8           13.91 
         3013.1              14 
         3013.4              14 
         3013.7           13.89 
           3014           13.68 
         3014.3           13.36 
         3014.6           12.98 
         3014.9            12.6 
         3015.2           12.24 
         3015.5            11.9 
         3015.8           11.52 
         3016.1           11.04 
         3016.4           10.41 
         3016.7            9.64 
           3017            8.76 
         3017.3           7.859 
         3017.6            7.02 
         3017.9           6.277 
         3018.2           5.601 
         3018.5           4.927 
         3018.8           4.206 
         3019.1           3.439 
         3019.4           2.675 
         3019.7           1.987 
           3020           1.435 
         3020.3           1.064 
         3020.6          0.9035 
         3020.9          0.9751 
         3021.2           1.288 
         3021.5           1.827 
         3021.8           2.549 
         3022.1           3.366 
         3022.4           4.155 
         3022.7           4.781 
           3023           5.139 
         3023.3           5.188 
         3023.6           4.975 
         3023.9           4.614 
         3024.2           4.224 
         3024.5           3.889 
         3024.8            3.64 
         3025.1           3.488 
         3025.4           3.459 
         3025.7           3.605 
           3026           3.967 
         3026.3           4.521 
         3026.6           5.173 
         3026.9             5.8 
         3027.2           6.324 
         3027.5           6.785 
         3027.8           7.331 
         3028.1           8.155 
         3028.4           9.384 
         3028.7           10.99 
           3029           12.73 
         3029.3           14.31 
         3029.6            15.4 
         3029.9           15.87 
         3030.2           15.84 
         3030.5           15.65 
         3030.8           15.74 
         3031.1           16.47 
         3031.4           17.95 
         3031.7            19.9 
           3032           21.74 
         3032.3           22.78 
         3032.6           22.55 
         3032.9           21.02 
         3033.2           18.58 
         3033.5           15.93 
         3033.8           13.76 
         3034.1           12.48 
         3034.4           12.17 
         3034.7           12.56 
           3035           13.16 
         3035.3           13.47 
         3035.6           13.18 
         3035.9           12.21 
         3036.2           10.69 
         3036.5           8.931 
         3036.8           7.308 
         3037.1           6.168 
         3037.4           5.764 
         3037.7           6.195 
           3038           7.385 
         3038.3           9.128 
         3038.6           11.17 
         3038.9           13.27 
         3039.2           15.21 
         3039.5           16.81 
         3039.8           17.84 
         3040.1           18.16 
         3040.4           17.72 
         3040.7            16.7 
           3041           15.45 
         3041.3           14.47 
         3041.6           14.14 
         3041.9           14.59 
         3042.2           15.66 
         3042.5           16.92 
         3042.8           17.87 
         3043.1           18.19 
         3043.4           17.85 
         3043.7           17.08 
           3044           16.23 
         3044.3           15.59 
         3044.6            15.3 
         3044.9            15.3 
         3045.2           15.41 
         3045.5           15.36 
         3045.8           14.88 
         3046.1           13.79 
         3046.4            12.1 
         3046.7           10.03 
           3047            7.92 
         3047.3           6.156 
         3047.6            5.05 
         3047.9           4.771 
         3048.2            5.34 
         3048.5           6.615 
         3048.8           8.301 
         3049.1           9.978 
         3049.4           11.21 
         3049.7            11.7 
           3050            11.4 
         3050.3           10.57 
         3050.6           9.645 
         3050.9           9.024 
         3051.2           8.938 
         3051.5           9.391 
         3051.8           10.19 
         3052.1           11.04 
         3052.4           11.61 
         3052.7            11.7 
           3053           11.23 
         3053.3           10.37 
         3053.6           9.383 
         3053.9             8.6 
         3054.2           8.234 
         3054.5           8.332 
         3054.8           8.766 
         3055.1           9.293 
         3055.4           9.668 
         3055.7           9.729 
           3056           9.449 
         3056.3           8.908 
         3056.6           8.235 
         3056.9           7.545 
         3057.2           6.903 
         3057.5           6.328 
         3057.8           5.804 
         3058.1           5.324 
         3058.4            4.93 
         3058.7           4.732 
           3059           4.887 
         3059.3            5.53 
         3059.6           6.717 
         3059.9            8.39 
         3060.2            10.4 
         3060.5           12.56 
         3060.8           14.66 
         3061.1           16.55 
         3061.4           18.09 
         3061.7           19.12 
           3062           19.43 
         3062.3           18.83 
         3062.6           17.26 
         3062.9           14.87 
         3063.2           12.06 
         3063.5            9.38 
         3063.8            7.27 
         3064.1           5.951 
         3064.4           5.376 
         3064.7           5.329 
           3065           5.577 
         3065.3           5.998 
         3065.6           6.606 
         3065.9           7.474 
         3066.2           8.613 
         3066.5           9.898 
         3066.8           11.08 
         3067.1           11.91 
         3067.4           12.26 
         3067.7            12.2 
           3068           11.89 
         3068.3           11.48 
         3068.6              11 
         3068.9            10.4 
         3069.2           9.624 
         3069.5            8.73 
         3069.8           7.934 
         3070.1           7.542 
         3070.4           7.814 
         3070.7            8.83 
           3071           10.44 
         3071.3           12.35 
         3071.6           14.24 
         3071.9           15.96 
         3072.2           17.53 
         3072.5           19.07 
         3072.8           20.72 
         3073.1           22.49 
         3073.4           24.24 
         3073.7           25.69 
           3074           26.52 
         3074.3           26.54 
         3074.6           25.89 
         3074.9           25.03 
         3075.2            24.6 
         3075.5            25.1 
         3075.8           26.64 
         3076.1            28.8 
         3076.4           30.81 
         3076.7           31.94 
           3077           31.81 
         3077.3           30.52 
         3077.6            28.5 
         3077.9            26.3 
         3078.2            24.3 
         3078.5           22.61 
         3078.8           21.08 
         3079.1           19.42 
         3079.4           17.45 
         3079.7           15.14 
           3080           12.66 
         3080.3           10.24 
         3080.6           8.074 
         3080.9           6.289 
         3081.2           4.931 
         3081.5           4.015 
         3081.8           3.537 
         3082.1           3.457 
         3082.4            3.69 
         3082.7           4.127 
           3083           4.691 
         3083.3           5.374 
         3083.6           6.233 
         3083.9            7.34 
         3084.2           8.742 
         3084.5           10.44 
         3084.8            12.4 
         3085.1            14.5 
         3085.4           16.56 
         3085.7           18.39 
           3086           19.93 
         3086.3           21.33 
         3086.6              23 
         3086.9           25.35 
         3087.2           28.54 
         3087.5           32.33 
         3087.8           36.02 
         3088.1           38.67 
         3088.4           39.37 
         3088.7           37.65 
           3089           33.65 
         3089.3           28.04 
         3089.6           21.81 
         3089.9           15.91 
         3090.2           11.02 
         3090.5           7.412 
         3090.8           5.035 
         3091.1           3.622 
         3091.4           2.854 
         3091.7           2.472 
           3092           2.341 
         3092.3           2.453 
         3092.6           2.892 
         3092.9           3.764 
         3093.2            5.13 
         3093.5           6.956 
         3093.8           9.111 
         3094.1           11.38 
         3094.4            13.5 
         3094.7           15.18 
           3095           16.16 
         3095.3           16.36 
         3095.6           15.98 
         3095.9           15.62 
         3096.2           16.16 
         3096.5           18.46 
         3096.8           22.85 
         3097.1           28.84 
         3097.4           35.02 
         3097.7           39.58 
           3098           40.97 
         3098.3           38.64 
         3098.6           33.26 
         3098.9           26.37 
         3099.2            19.7 
         3099.5           14.53 
         3099.8           11.34 
         3100.1           9.874 
         3100.4           9.504 
         3100.7           9.594 
           3101           9.836 
         3101.3           11.62 
         3101.6           14.15 
         3101.9           18.22 
         3102.2           23.62 
         3102.5           29.75 
         3102.8           35.77 
         3103.1           40.97 
         3103.4           44.97 
         3103.7           47.63 
           3104           48.84 
         3104.3           48.37 
         3104.6           45.99 
         3104.9           41.75 
         3105.2           36.22 
         3105.5           30.31 
         3105.8           24.94 
         3106.1           20.83 
         3106.4           18.33 
         3106.7           17.53 
           3107           18.28 
         3107.3           20.17 
         3107.6           22.53 
         3107.9           24.58 
         3108.2           25.73 
         3108.5            25.8 
         3108.8           25.12 
         3109.1           24.43 
         3109.4           24.56 
         3109.7           26.16 
           3110           29.45 
         3110.3              34 
         3110.6           38.81 
         3110.9           42.52 
         3111.2           43.93 
         3111.5           42.48 
         3111.8           38.48 
         3112.1           32.99 
         3112.4           27.33 
         3112.7            22.6 
           3113            19.5 
         3113.3            18.3 
         3113.6           19.11 
         3113.9           21.89 
         3114.2           26.54 
         3114.5           32.68 
         3114.8           39.47 
         3115.1            45.7 
         3115.4           49.92 
         3115.7           51.03 
           3116           48.75 
         3116.3              44 
         3116.6           38.67 
         3116.9           34.99 
         3117.2           34.61 
         3117.5           38.07 
         3117.8           44.56 
         3118.1           52.38 
         3118.4           59.53 
         3118.7           64.47 
           3119           66.57 
         3119.3           66.17 
         3119.6           64.25 
         3119.9           61.78 
         3120.2           59.11 
         3120.5           55.86 
         3120.8           51.34 
         3121.1           45.28 
         3121.4           38.33 
         3121.7           32.02 
           3122            28.1 
         3122.3           27.62 
         3122.6           30.38 
         3122.9           34.97 
         3123.2           39.44 
         3123.5           42.15 
         3123.8            42.5 
         3124.1           41.06 
         3124.4           39.16 
         3124.7           37.99 
           3125           38.04 
         3125.3           38.85 
         3125.6           39.45 
         3125.9           39.07 
         3126.2           37.57 
         3126.5           35.35 
         3126.8           32.92 
         3127.1           30.54 
         3127.4            28.2 
         3127.7           25.82 
           3128           23.45 
         3128.3           21.26 
         3128.6           19.57 
         3128.9           18.65 
         3129.2           18.69 
         3129.5           19.76 
         3129.8           21.89 
         3130.1           25.13 
         3130.4           29.55 
         3130.7           35.03 
           3131           40.99 
         3131.3            46.3 
         3131.6            49.6 
         3131.9           49.99 
         3132.2           47.46 
         3132.5           42.97 
         3132.8           37.94 
         3133.1           33.61 
         3133.4           30.84 
         3133.7            30.1 
           3134           31.42 
         3134.3           34.27 
         3134.6           37.59 
         3134.9              40 
         3135.2           40.54 
         3135.5           39.11 
         3135.8           36.56 
         3136.1           34.22 
         3136.4           33.38 
         3136.7           34.79 
           3137           38.53 
         3137.3           43.93 
         3137.6           49.76 
         3137.9           54.61 
         3138.2           57.47 
         3138.5           58.16 
         3138.8           57.46 
         3139.1           56.65 
         3139.4           56.96 
         3139.7           59.09 
           3140           62.94 
         3140.3           67.68 
         3140.6           71.99 
         3140.9           74.71 
         3141.2           75.43 
         3141.5           74.66 
         3141.8           73.29 
         3142.1           71.83 
         3142.4           70.05 
         3142.7           67.35 
           3143           63.55 
         3143.3           59.13 
         3143.6           54.91 
         3143.9           51.35 
         3144.2           48.36 
         3144.5           45.42 
         3144.8           42.16 
         3145.1           38.62 
         3145.4           35.17 
         3145.7           32.29 
           3146           30.53 
         3146.3           30.32 
         3146.6           32.01 
         3146.9           35.81 
         3147.2           41.61 
         3147.5           49.13 
         3147.8           57.82 
         3148.1           66.77 
         3148.4           74.66 
         3148.7           80.08 
           3149           82.11 
         3149.3           80.81 
         3149.6           77.16 
         3149.9           72.34 
         3150.2           67.03 
         3150.5           61.29 
         3150.8           54.92 
         3151.1           48.08 
         3151.4           41.41 
         3151.7           35.82 
           3152           32.02 
         3152.3           30.17 
         3152.6           29.93 
         3152.9           30.72 
         3153.2           32.11 
         3153.5           34.07 
         3153.8           36.84 
         3154.1           40.49 
         3154.4           44.56 
         3154.7           48.01 
           3155           49.75 
         3155.3           49.28 
         3155.6           47.11 
         3155.9           44.46 
         3156.2           42.61 
         3156.5           42.37 
         3156.8           43.81 
         3157.1           46.41 
         3157.4           49.45 
         3157.7           52.32 
           3158           54.75 
         3158.3           56.71 
         3158.6           58.14 
         3158.9           58.79 
         3159.2           58.25 
         3159.5           56.39 
         3159.8            53.7 
         3160.1           51.41 
         3160.4           50.87 
         3160.7           52.77 
           3161            56.7 
         3161.3           61.34 
         3161.6           65.38 
         3161.9           68.34 
         3162.2           70.61 
         3162.5           72.91 
         3162.8           75.63 
         3163.1           78.63 
         3163.4           81.59 
         3163.7           84.29 
           3164           86.66 
         3164.3           88.43 
         3164.6           89.27 
         3164.9           89.01 
         3165.2           88.12 
         3165.5           87.69 
         3165.8           89.23 
         3166.1           94.07 
         3166.4           102.7 
         3166.7           114.3 
           3167           126.9 
         3167.3           137.2 
         3167.6           142.3 
         3167.9             141 
         3168.2           134.2 
         3168.5           125.3 
         3168.8           117.7 
         3169.1           113.3 
         3169.4           111.9 
         3169.7           111.1 
           3170           108.7 
         3170.3           103.8 
         3170.6           97.38 
         3170.9           91.44 
         3171.2           87.75 
         3171.5            86.8 
         3171.8           87.64 
         3172.1           88.57 
         3172.4           88.22 
         3172.7           86.41 
           3173           84.23 
         3173.3           83.53 
         3173.6            85.9 
         3173.9           91.96 
         3174.2             101 
         3174.5           111.6 
         3174.8           121.8 
         3175.1           129.7 
         3175.4           134.1 
         3175.7           134.2 
           3176           129.8 
         3176.3           121.9 
         3176.6           112.1 
         3176.9           102.5 
         3177.2            95.5 
         3177.5           92.61 
         3177.8            94.2 
         3178.1           98.96 
