# Granada HRES Library
# atmosphere = Phoenix  (atmosphere model used)
# feh = -5  (value for [Fe/H] for the model.)
# logg = 2.5 log(cm/s2) (value for Log(G) for the model.)
# teff = 3000 K (value for the effective temperature for the model. Temperatures are given in K)
#
# column 1: WAVELENGTH (ANGSTROM), Wavelength in Angstrom
# column 2: FLUX (ERG/CM2/S/A), Flux in erg/cm2/s/A
         3000.2           48.66 
         3000.5           41.16 
         3000.8           36.32 
         3001.1           33.84 
         3001.4           32.86 
         3001.7           32.41 
           3002           32.01 
         3002.3           31.99 
         3002.6           33.48 
         3002.9           37.96 
         3003.2            46.6 
         3003.5           59.74 
         3003.8           76.66 
         3004.1           95.69 
         3004.4           114.5 
         3004.7           130.8 
           3005           142.5 
         3005.3             148 
         3005.6           146.6 
         3005.9           138.7 
         3006.2           125.4 
         3006.5           109.1 
         3006.8           92.64 
         3007.1           78.29 
         3007.4           67.91 
         3007.7           62.47 
           3008           62.29 
         3008.3           67.35 
         3008.6           77.67 
         3008.9           93.45 
         3009.2           114.8 
         3009.5           140.8 
         3009.8           168.5 
         3010.1           193.5 
         3010.4           210.8 
         3010.7           217.3 
           3011           213.3 
         3011.3           202.5 
         3011.6             190 
         3011.9           180.2 
         3012.2           174.7 
         3012.5           172.8 
         3012.8           172.7 
         3013.1           172.6 
         3013.4           171.6 
         3013.7           169.4 
           3014           166.3 
         3014.3           162.5 
         3014.6           158.5 
         3014.9           154.7 
         3015.2           151.8 
         3015.5           149.6 
         3015.8           147.7 
         3016.1           145.2 
         3016.4           141.2 
         3016.7             135 
           3017           126.9 
         3017.3           117.6 
         3017.6           108.4 
         3017.9           99.79 
         3018.2           91.48 
         3018.5           82.74 
         3018.8           72.94 
         3019.1           62.08 
         3019.4           50.77 
         3019.7           40.02 
           3020           30.88 
         3020.3           24.35 
         3020.6           21.35 
         3020.9           22.51 
         3021.2           28.09 
         3021.5           37.68 
         3021.8           50.22 
         3022.1            63.9 
         3022.4           76.58 
         3022.7           86.05 
           3023           90.74 
         3023.3           90.24 
         3023.6           85.53 
         3023.9           78.52 
         3024.2           71.34 
         3024.5           65.36 
         3024.8           61.02 
         3025.1           58.26 
         3025.4           57.22 
         3025.7           58.45 
           3026           62.45 
         3026.3           68.98 
         3026.6           76.84 
         3026.9           84.33 
         3027.2           90.31 
         3027.5           95.05 
         3027.8           100.3 
         3028.1           108.3 
         3028.4           120.6 
         3028.7           136.8 
           3029           154.8 
         3029.3           170.9 
         3029.6           181.9 
         3029.9           186.3 
         3030.2           185.3 
         3030.5           182.2 
         3030.8           181.3 
         3031.1           186.6 
         3031.4           199.1 
         3031.7           216.6 
           3032           233.6 
         3032.3           243.3 
         3032.6           240.7 
         3032.9           225.2 
         3033.2           200.8 
         3033.5           174.5 
         3033.8           153.4 
         3034.1           142.3 
         3034.4           141.9 
         3034.7           149.4 
           3035           159.4 
         3035.3           166.2 
         3035.6           166.1 
         3035.9           157.5 
         3036.2           141.9 
         3036.5           122.7 
         3036.8           104.5 
         3037.1           91.81 
         3037.4           87.79 
         3037.7            93.5 
           3038           107.5 
         3038.3           126.6 
         3038.6           146.9 
         3038.9           165.5 
         3039.2           180.5 
         3039.5           190.6 
         3039.8           194.8 
         3040.1           192.6 
         3040.4           184.1 
         3040.7           171.2 
           3041           157.3 
         3041.3           146.6 
         3041.6           142.8 
         3041.9           147.3 
         3042.2           158.9 
         3042.5           173.9 
         3042.8             188 
         3043.1           197.7 
         3043.4           201.8 
         3043.7           201.3 
           3044           198.6 
         3044.3           195.9 
         3044.6           194.9 
         3044.9           195.9 
         3045.2           197.6 
         3045.5           197.7 
         3045.8           193.4 
         3046.1           182.3 
         3046.4             164 
         3046.7           140.5 
           3047           115.7 
         3047.3           94.47 
         3047.6           80.89 
         3047.9           77.38 
         3048.2           84.34 
         3048.5           100.1 
         3048.8             121 
         3049.1           141.9 
         3049.4           157.5 
         3049.7           164.1 
           3050           161.1 
         3050.3           151.5 
         3050.6           140.4 
         3050.9           132.4 
         3051.2           130.2 
         3051.5           133.6 
         3051.8           140.6 
         3052.1           148.1 
         3052.4           152.7 
         3052.7           152.2 
           3053           146.1 
         3053.3           135.8 
         3053.6           124.2 
         3053.9           114.9 
         3054.2           110.1 
         3054.5           110.5 
         3054.8           114.7 
         3055.1             120 
         3055.4           123.8 
         3055.7           124.2 
           3056           121.1 
         3056.3           115.4 
         3056.6           108.7 
         3056.9           102.4 
         3057.2           97.26 
         3057.5           93.16 
         3057.8           89.58 
         3058.1           86.03 
         3058.4            82.8 
         3058.7           81.27 
           3059           83.55 
         3059.3           91.42 
         3059.6           105.5 
         3059.9           124.6 
         3060.2           146.6 
         3060.5           168.7 
         3060.8           188.6 
         3061.1           204.5 
         3061.4           215.4 
         3061.7           220.2 
           3062           217.6 
         3062.3           206.3 
         3062.6             186 
         3062.9           158.3 
         3063.2           127.2 
         3063.5            97.7 
         3063.8           74.26 
         3064.1           59.13 
         3064.4           52.04 
         3064.7           50.91 
           3065           53.04 
         3065.3           56.43 
         3065.6           60.19 
         3065.9           64.38 
         3066.2           69.25 
         3066.5            74.6 
         3066.8           79.67 
         3067.1           83.58 
         3067.4           86.06 
         3067.7           87.59 
           3068           88.93 
         3068.3           90.39 
         3068.6           91.42 
         3068.9           91.01 
         3069.2           88.48 
         3069.5           84.37 
         3069.8            80.7 
         3070.1           80.32 
         3070.4           85.66 
         3070.7           97.58 
           3071             115 
         3071.3           135.5 
         3071.6           156.5 
         3071.9           176.4 
         3072.2           194.5 
         3072.5             210 
         3072.8           222.5 
         3073.1           231.1 
         3073.4           235.9 
         3073.7           237.7 
           3074           237.3 
         3074.3           235.6 
         3074.6           233.3 
         3074.9             232 
         3075.2           234.5 
         3075.5           243.2 
         3075.8           258.8 
         3076.1           278.7 
         3076.4           297.4 
         3076.7           309.2 
           3077           310.7 
         3077.3           302.5 
         3077.6           287.8 
         3077.9           270.9 
         3078.2           255.1 
         3078.5           241.2 
         3078.8             228 
         3079.1             213 
         3079.4           194.6 
         3079.7           172.9 
           3080           149.3 
         3080.3           125.8 
         3080.6             104 
         3080.9           85.19 
         3081.2           70.04 
         3081.5           59.15 
         3081.8            52.9 
         3082.1           51.08 
         3082.4           52.73 
         3082.7           56.56 
           3083           61.62 
         3083.3           67.74 
         3083.6           75.43 
         3083.9           85.23 
         3084.2           97.18 
         3084.5           110.8 
         3084.8           125.4 
         3085.1           140.1 
         3085.4           153.3 
         3085.7           163.9 
           3086           171.5 
         3086.3           177.9 
         3086.6           186.8 
         3086.9           202.1 
         3087.2           226.1 
         3087.5             257 
         3087.8           288.7 
         3088.1           312.8 
         3088.4           321.2 
         3088.7           309.3 
           3089           278.6 
         3089.3           234.9 
         3089.6             187 
         3089.9           142.6 
         3090.2             107 
         3090.5           81.56 
         3090.8           65.11 
         3091.1           55.07 
         3091.4           48.84 
         3091.7           44.61 
           3092            41.8 
         3092.3           40.93 
         3092.6           43.21 
         3092.9           49.71 
         3093.2           60.59 
         3093.5           74.76 
         3093.8           90.08 
         3094.1           104.1 
         3094.4           114.8 
         3094.7           120.9 
           3095           122.1 
         3095.3           119.3 
         3095.6             115 
         3095.9           113.1 
         3096.2           118.5 
         3096.5           134.5 
         3096.8           161.4 
         3097.1           194.3 
         3097.4           224.7 
         3097.7           242.8 
           3098           242.5 
         3098.3           223.1 
         3098.6           190.3 
         3098.9           153.2 
         3099.2           120.9 
         3099.5           99.21 
         3099.8           89.72 
         3100.1           89.96 
         3100.4            95.2 
         3100.7           100.8 
           3101           104.5 
         3101.3           111.2 
         3101.6           121.5 
         3101.9           140.1 
         3102.2           166.6 
         3102.5           198.5 
         3102.8           231.6 
         3103.1             262 
         3103.4           286.5 
         3103.7           302.5 
           3104           307.4 
         3104.3           299.5 
         3104.6           278.8 
         3104.9           247.5 
         3105.2           211.1 
         3105.5           176.1 
         3105.8           148.2 
         3106.1           130.9 
         3106.4           124.9 
         3106.7           129.1 
           3107           141.1 
         3107.3           157.1 
         3107.6           172.8 
         3107.9           183.9 
         3108.2           188.1 
         3108.5           186.9 
         3108.8           184.8 
         3109.1           187.3 
         3109.4           199.5 
         3109.7           222.9 
           3110           255.1 
         3110.3           290.2 
         3110.6           320.4 
         3110.9           338.1 
         3111.2           339.1 
         3111.5           323.2 
         3111.8             295 
         3112.1           261.7 
         3112.4           230.5 
         3112.7           207.3 
           3113           195.7 
         3113.3           197.6 
         3113.6           214.3 
         3113.9           245.7 
         3114.2             290 
         3114.5           342.5 
         3114.8           395.1 
         3115.1           437.5 
         3115.4             460 
         3115.7           456.5 
           3116           428.4 
         3116.3           384.8 
         3116.6           341.1 
         3116.9           313.5 
         3117.2           313.3 
         3117.5           342.9 
         3117.8             395 
         3118.1             456 
         3118.4           511.1 
         3118.7           549.1 
           3119           566.7 
         3119.3           567.8 
         3119.6           560.4 
         3119.9           550.9 
         3120.2             540 
         3120.5           522.1 
         3120.8           488.7 
         3121.1             436 
         3121.4           368.6 
         3121.7           299.7 
           3122           244.3 
         3122.3           213.4 
         3122.6           208.6 
         3122.9           223.3 
         3123.2           246.1 
         3123.5           266.5 
         3123.8           279.4 
         3124.1           285.4 
         3124.4           289.3 
         3124.7           296.2 
           3125           308.1 
         3125.3             322 
         3125.6           333.5 
         3125.9           338.7 
         3126.2           337.6 
         3126.5           331.8 
         3126.8           322.2 
         3127.1           308.4 
         3127.4           289.7 
         3127.7           266.5 
           3128           241.6 
         3128.3           218.3 
         3128.6           200.2 
         3128.9           189.5 
         3129.2           188.1 
         3129.5           197.4 
         3129.8           218.4 
         3130.1           251.8 
         3130.4           297.4 
         3130.7           352.3 
           3131           409.9 
         3131.3             459 
         3131.6           487.7 
         3131.9           488.3 
         3132.2           461.6 
         3132.5           416.5 
         3132.8             366 
         3133.1           321.3 
         3133.4             290 
         3133.7             276 
           3134             280 
         3134.3           298.3 
         3134.6           322.3 
         3134.9             341 
         3135.2           345.4 
         3135.5           333.8 
         3135.8           312.7 
         3136.1           293.2 
         3136.4           286.8 
         3136.7           300.4 
           3137           334.4 
         3137.3           382.8 
         3137.6           434.4 
         3137.9           476.7 
         3138.2           500.7 
         3138.5           503.8 
         3138.8           491.1 
         3139.1           472.1 
         3139.4           456.2 
         3139.7           449.5 
           3140           453.6 
         3140.3             466 
         3140.6             481 
         3140.9           492.7 
         3141.2           497.9 
         3141.5           497.1 
         3141.8             493 
         3142.1           486.7 
         3142.4             476 
         3142.7           458.6 
           3143           435.2 
         3143.3           411.4 
         3143.6           393.3 
         3143.9           383.4 
         3144.2           378.7 
         3144.5           372.7 
         3144.8           360.5 
         3145.1             341 
         3145.4           315.8 
         3145.7           287.9 
           3146           261.4 
         3146.3           241.4 
         3146.6           235.3 
         3146.9           250.4 
         3147.2           291.8 
         3147.5           359.4 
         3147.8           445.5 
         3148.1           535.1 
         3148.4           608.4 
         3148.7           647.5 
           3149           643.1 
         3149.3           599.3 
         3149.6           531.2 
         3149.9           457.7 
         3150.2           393.6 
         3150.5           344.8 
         3150.8           310.6 
         3151.1           287.6 
         3151.4           273.2 
         3151.7           267.1 
           3152           269.9 
         3152.3           280.7 
         3152.6           296.4 
         3152.9           312.6 
         3153.2           326.8 
         3153.5           339.8 
         3153.8           355.6 
         3154.1           378.1 
         3154.4           406.2 
         3154.7           433.1 
           3155           449.5 
         3155.3           450.1 
         3155.6           437.1 
         3155.9           420.1 
         3156.2           410.5 
         3156.5           415.7 
         3156.8           437.3 
         3157.1           470.7 
         3157.4             509 
         3157.7           545.7 
           3158           577.6 
         3158.3           603.3 
         3158.6           622.1 
         3158.9             631 
         3159.2           626.4 
         3159.5           607.1 
         3159.8             579 
         3160.1           554.5 
         3160.4           547.9 
         3160.7           566.8 
           3161           607.1 
         3161.3           656.2 
         3161.6           701.3 
         3161.9             737 
         3162.2           766.6 
         3162.5           795.2 
         3162.8             824 
         3163.1           849.3 
         3163.4           867.2 
         3163.7           877.7 
           3164           883.7 
         3164.3           887.3 
         3164.6           887.4 
         3164.9           882.7 
         3165.2           876.4 
         3165.5             878 
         3165.8           901.6 
         3166.1           959.8 
         3166.4            1057 
         3166.7            1184 
           3167            1317 
         3167.3            1424 
         3167.6            1474 
         3167.9            1455 
         3168.2            1379 
         3168.5            1281 
         3168.8            1199 
         3169.1            1153 
         3169.4            1141 
         3169.7            1140 
           3170            1122 
         3170.3            1077 
         3170.6            1012 
         3170.9           948.4 
         3171.2           905.5 
         3171.5           891.8 
         3171.8           899.5 
         3172.1           911.3 
         3172.4           911.7 
         3172.7           897.8 
           3173           881.1 
         3173.3           881.4 
         3173.6           915.7 
         3173.9           989.2 
         3174.2            1093 
         3174.5            1211 
         3174.8            1322 
         3175.1            1409 
         3175.4            1459 
         3175.7            1461 
           3176            1414 
         3176.3            1324 
         3176.6            1212 
         3176.9            1101 
         3177.2            1020 
         3177.5           986.1 
         3177.8            1002 
         3178.1            1052 
