# Granada HRES Library
# atmosphere = Spectrum  (atmosphere model used)
# feh = -10  (value for [Fe/H] for the model.)
# logg = 1.5 log(cm/s2) (value for Log(G) for the model.)
# teff = 5000 K (value for the effective temperature for the model. Temperatures are given in K)
#
# column 1: WAVELENGTH (ANGSTROM), Wavelength in Angstrom
# column 2: FLUX (ERG/CM2/S/A), Flux in erg/cm2/s/A
         3000.2          234900 
         3000.5          238500 
         3000.8          243100 
         3001.1          248400 
         3001.4          253900 
         3001.7          259900 
           3002          267200 
         3002.3          277200 
         3002.6          291800 
         3002.9          312800 
         3003.2          341200 
         3003.5          376500 
         3003.8          417000 
         3004.1          459500 
         3004.4          500100 
         3004.7          534900 
           3005          560600 
         3005.3          574900 
         3005.6          576800 
         3005.9          566700 
         3006.2          546400 
         3006.5          518400 
         3006.8          486300 
         3007.1          454200 
         3007.4          426000 
         3007.7          405500 
           3008          395600 
         3008.3          397900 
         3008.6          412700 
         3008.9          438800 
         3009.2          473400 
         3009.5          512800 
         3009.8          552200 
         3010.1          586900 
         3010.4          613000 
         3010.7          628400 
           3011          632700 
         3011.3          627800 
         3011.6          616700 
         3011.9          603100 
         3012.2          589400 
         3012.5          577400 
         3012.8          567800 
         3013.1          560300 
         3013.4          554600 
         3013.7          550200 
           3014          546800 
         3014.3          544200 
         3014.6          542000 
         3014.9          539900 
         3015.2          537400 
         3015.5          534200 
         3015.8          529800 
         3016.1          523600 
         3016.4          514900 
         3016.7          503500 
           3017          488800 
         3017.3          470800 
         3017.6          449100 
         3017.9          423600 
         3018.2          394400 
         3018.5          361400 
         3018.8          325600 
         3019.1          288200 
         3019.4          251800 
         3019.7          219300 
           3020          194200 
         3020.3          179900 
         3020.6          179500 
         3020.9          195000 
         3021.2          226000 
         3021.5          270300 
         3021.8          323600 
         3022.1          380200 
         3022.4          434200 
         3022.7          479900 
           3023          513500 
         3023.3          533200 
         3023.6          538900 
         3023.9          532200 
         3024.2          515800 
         3024.5          492900 
         3024.8          467600 
         3025.1          444400 
         3025.4          428000 
         3025.7          422900 
           3026          431900 
         3026.3          455500 
         3026.6          491100 
         3026.9          533700 
         3027.2          577300 
         3027.5          616000 
         3027.8          645000 
         3028.1          661800 
         3028.4          665800 
         3028.7          658200 
           3029          641600 
         3029.3          619200 
         3029.6          594300 
         3029.9          570000 
         3030.2          548800 
         3030.5          532700 
         3030.8          523200 
         3031.1          521100 
         3031.4          526600 
         3031.7          538700 
           3032          555400 
         3032.3          574100 
         3032.6          592500 
         3032.9          609100 
         3033.2          623700 
         3033.5          636700 
         3033.8          648900 
         3034.1          660600 
         3034.4          670800 
         3034.7          677300 
           3035          676700 
         3035.3          665600 
         3035.6          641600 
         3035.9          604800 
         3036.2          557500 
         3036.5          505300 
         3036.8          455000 
         3037.1          414000 
         3037.4          388100 
         3037.7          380300 
           3038          390500 
         3038.3          415500 
         3038.6          449900 
         3038.9          486900 
         3039.2          520800 
         3039.5          546700 
         3039.8          561700 
         3040.1          565400 
         3040.4          558800 
         3040.7          544900 
           3041          527500 
         3041.3          510500 
         3041.6          497800 
         3041.9          492100 
         3042.2          494700 
         3042.5          505300 
         3042.8          521600 
         3043.1          540500 
         3043.4          559100 
         3043.7          574900 
           3044          586900 
         3044.3          594800 
         3044.6          598900 
         3044.9          598700 
         3045.2          593500 
         3045.5          582200 
         3045.8          563600 
         3046.1          537400 
         3046.4          505800 
         3046.7          472600 
           3047          443100 
         3047.3          423000 
         3047.6          416500 
         3047.9          424900 
         3048.2          446700 
         3048.5          477200 
         3048.8          511000 
         3049.1          542400 
         3049.4          568000 
         3049.7          587300 
           3050          602400 
         3050.3          617100 
         3050.6          634900 
         3050.9          658000 
         3051.2          685000 
         3051.5          711900 
         3051.8          733300 
         3052.1          744000 
         3052.4          740600 
         3052.7          723500 
           3053          695900 
         3053.3          663500 
         3053.6          633000 
         3053.9          610200 
         3054.2          598600 
         3054.5          598600 
         3054.8          607400 
         3055.1          619800 
         3055.4          629400 
         3055.7          630800 
           3056          620100 
         3056.3          596600 
         3056.6          562100 
         3056.9          521000 
         3057.2          478400 
         3057.5          439100 
         3057.8          407000 
         3058.1          384600 
         3058.4          373200 
         3058.7          374000 
           3059          387400 
         3059.3          413600 
         3059.6          450900 
         3059.9          496300 
         3060.2          545100 
         3060.5          591600 
         3060.8          630600 
         3061.1          657700 
         3061.4          670600 
         3061.7          669000 
           3062          654100 
         3062.3          628100 
         3062.6          594400 
         3062.9          556900 
         3063.2          519500 
         3063.5          485700 
         3063.8          458200 
         3064.1          438100 
         3064.4          424800 
         3064.7          416600 
           3065          410400 
         3065.3          403700 
         3065.6          395000 
         3065.9          384400 
         3066.2          373400 
         3066.5          364600 
         3066.8          361200 
         3067.1          366100 
         3067.4          380600 
         3067.7          405000 
           3068          437700 
         3068.3          475300 
         3068.6          514200 
         3068.9          550000 
         3069.2          579500 
         3069.5          600800 
         3069.8          613400 
         3070.1          618300 
         3070.4          617100 
         3070.7          611400 
           3071          603100 
         3071.3          593500 
         3071.6          584400 
         3071.9          578000 
         3072.2          576300 
         3072.5          580500 
         3072.8          590600 
         3073.1          604000 
         3073.4          617100 
         3073.7          626000 
           3074          627700 
         3074.3          621400 
         3074.6          609500 
         3074.9          596300 
         3075.2          587000 
         3075.5          585300 
         3075.8          592500 
         3076.1          606700 
         3076.4          623600 
         3076.7          637900 
           3077          645600 
         3077.3          645100 
         3077.6          637400 
         3077.9          626000 
         3078.2          614700 
         3078.5          607100 
         3078.8          604500 
         3079.1          606600 
         3079.4          610600 
         3079.7          613300 
           3080          611900 
         3080.3          604900 
         3080.6          592700 
         3080.9          576700 
         3081.2          559700 
         3081.5          544400 
         3081.8          533700 
         3082.1          529500 
         3082.4          532900 
         3082.7          544500 
           3083          564100 
         3083.3          591100 
         3083.6          624000 
         3083.9          660300 
         3084.2          696700 
         3084.5          729100 
         3084.8          753500 
         3085.1          766100 
         3085.4          764500 
         3085.7          747800 
           3086          717200 
         3086.3          676200 
         3086.6          629700 
         3086.9          583800 
         3087.2          544300 
         3087.5          515200 
         3087.8          497900 
         3088.1          491200 
         3088.4          491500 
         3088.7          494600 
           3089          496800 
         3089.3          496200 
         3089.6          493100 
         3089.9          489100 
         3090.2          486500 
         3090.5          486400 
         3090.8          489100 
         3091.1          493100 
         3091.4          496100 
         3091.7          496000 
           3092          491700 
         3092.3          483600 
         3092.6          474000 
         3092.9          466300 
         3093.2          463400 
         3093.5          467000 
         3093.8          476300 
         3094.1          489200 
         3094.4          502200 
         3094.7          511900 
           3095          515900 
         3095.3          513400 
         3095.6          505400 
         3095.9          494400 
         3096.2          483700 
         3096.5          476000 
         3096.8          473000 
         3097.1          474000 
         3097.4          476800 
         3097.7          477400 
           3098          471800 
         3098.3          457300 
         3098.6          433200 
         3098.9          401300 
         3099.2          365300 
         3099.5          329800 
         3099.8          299200 
         3100.1          277300 
         3100.4          266300 
         3100.7          267200 
           3101          280300 
         3101.3          305000 
         3101.6          340000 
         3101.9          383200 
         3102.2          431600 
         3102.5          481200 
         3102.8          527600 
         3103.1          566700 
         3103.4          595300 
         3103.7          611500 
           3104          615700 
         3104.3          610000 
         3104.6          597900 
         3104.9          584000 
         3105.2          573100 
         3105.5          569000 
         3105.8          574000 
         3106.1          588200 
         3106.4          609800 
         3106.7          635800 
           3107          662300 
         3107.3          686300 
         3107.6          704900 
         3107.9          716300 
         3108.2          719800 
         3108.5          716000 
         3108.8          706400 
         3109.1          693300 
         3109.4          679700 
         3109.7          668600 
           3110          663100 
         3110.3          664600 
         3110.6          673200 
         3110.9          687100 
         3111.2          704000 
         3111.5          720600 
         3111.8          733500 
         3112.1          740400 
         3112.4          740100 
         3112.7          732500 
           3113          718900 
         3113.3          702000 
         3113.6          685400 
         3113.9          672700 
         3114.2          666900 
         3114.5          669100 
         3114.8          678500 
         3115.1          691600 
         3115.4          703800 
         3115.7          709900 
           3116          706000 
         3116.3          690200 
         3116.6          663500 
         3116.9          629100 
         3117.2          591700 
         3117.5          555600 
         3117.8          524500 
         3118.1          500700 
         3118.4          484600 
         3118.7          475600 
           3119          472400 
         3119.3          473600 
         3119.6          478000 
         3119.9          484300 
         3120.2          490900 
         3120.5          496500 
         3120.8          499800 
         3121.1          499900 
         3121.4          497600 
         3121.7          495300 
           3122          495100 
         3122.3          499600 
         3122.6          509700 
         3122.9          524500 
         3123.2          541500 
         3123.5          557300 
         3123.8          568600 
         3124.1          573400 
         3124.4          572000 
         3124.7          566800 
           3125          561200 
         3125.3          559600 
         3125.6          564800 
         3125.9          577800 
         3126.2          596900 
         3126.5          618700 
         3126.8          638900 
         3127.1          653600 
         3127.4          660100 
         3127.7          657900 
           3128          648600 
         3128.3          634400 
         3128.6          618200 
         3128.9          602100 
         3129.2          587000 
         3129.5          572800 
         3129.8          559900 
         3130.1          548700 
         3130.4          539900 
         3130.7          534300 
           3131          532000 
         3131.3          532700 
         3131.6          534900 
         3131.9          537300 
         3132.2          538200 
         3132.5          537100 
         3132.8          533900 
         3133.1          529600 
         3133.4          526200 
         3133.7          525900 
           3134          530600 
         3134.3          541400 
         3134.6          557300 
         3134.9          576100 
         3135.2          594700 
         3135.5          610200 
         3135.8          621300 
         3136.1          628100 
         3136.4          632200 
         3136.7          635100 
           3137          638000 
         3137.3          641200 
         3137.6          643700 
         3137.9          644900 
         3138.2          644700 
         3138.5          643300 
         3138.8          642200 
         3139.1          642900 
         3139.4          646500 
         3139.7          653700 
           3140          663900 
         3140.3          675900 
         3140.6          687200 
         3140.9          694900 
         3141.2          695700 
         3141.5          686800 
         3141.8          666600 
         3142.1          634400 
         3142.4          590900 
         3142.7          538600 
           3143          480900 
         3143.3          422800 
         3143.6          368900 
         3143.9          324600 
         3144.2          293300 
         3144.5          277200 
         3144.8          276300 
         3145.1          288900 
         3145.4          311700 
         3145.7          340400 
           3146          371200 
         3146.3          401600 
         3146.6          430300 
         3146.9          457700 
         3147.2          484800 
         3147.5          512700 
         3147.8          542000 
         3148.1          571700 
         3148.4          600500 
         3148.7          626700 
           3149          649000 
         3149.3          667300 
         3149.6          681700 
         3149.9          693100 
         3150.2          701700 
         3150.5          707400 
         3150.8          709500 
         3151.1          708200 
         3151.4          704200 
         3151.7          699000 
           3152          694800 
         3152.3          693200 
         3152.6          694300 
         3152.9          696900 
         3153.2          698900 
         3153.5          698100 
         3153.8          692800 
         3154.1          683000 
         3154.4          669600 
         3154.7          654100 
           3155          637400 
         3155.3          619700 
         3155.6          600100 
         3155.9          577900 
         3156.2          552000 
         3156.5          522700 
         3156.8          491600 
         3157.1          461100 
         3157.4          434300 
         3157.7          413400 
           3158          400000 
         3158.3          394400 
         3158.6          395100 
         3158.9          400000 
         3159.2          406700 
         3159.5          412300 
         3159.8          414800 
         3160.1          413000 
         3160.4          407800 
         3160.7          401200 
           3161          396000 
         3161.3          395300 
         3161.6          401500 
         3161.9          415500 
         3162.2          436300 
         3162.5          461600 
         3162.8          487800 
         3163.1          511100 
         3163.4          528300 
         3163.7          538000 
           3164          540700 
         3164.3          538900 
         3164.6          536100 
         3164.9          535800 
         3165.2          540500 
         3165.5          551200 
         3165.8          567000 
         3166.1          585300 
         3166.4          603000 
         3166.7          616500 
           3167          623100 
         3167.3          621500 
         3167.6          612100 
         3167.9          597700 
         3168.2          582200 
         3168.5          570600 
         3168.8          566900 
         3169.1          573600 
         3169.4          591000 
         3169.7          617300 
           3170          649200 
         3170.3          682900 
         3170.6          715100 
         3170.9          743600 
         3171.2          767200 
         3171.5          785300 
         3171.8          797600 
         3172.1          803500 
         3172.4          802600 
         3172.7          794600 
           3173          780500 
         3173.3          761900 
         3173.6          741500 
         3173.9          722500 
         3174.2          708000 
         3174.5          701100 
         3174.8          702800 
         3175.1          713700 
         3175.4          732100 
         3175.7          754600 
           3176          776900 
         3176.3          794700 
         3176.6          804400 
         3176.9          804500 
         3177.2          795400 
         3177.5          778500 
         3177.8          756100 
         3178.1          730500 
