# Granada HRES Library
# atmosphere = Phoenix  (atmosphere model used)
# feh = -10  (value for [Fe/H] for the model.)
# logg = 2.5 log(cm/s2) (value for Log(G) for the model.)
# teff = 3000 K (value for the effective temperature for the model. Temperatures are given in K)
#
# column 1: WAVELENGTH (ANGSTROM), Wavelength in Angstrom
# column 2: FLUX (ERG/CM2/S/A), Flux in erg/cm2/s/A
         3000.2           57.02 
         3000.5           49.35 
         3000.8           44.31 
         3001.1           41.68 
         3001.4           40.58 
         3001.7              40 
           3002           39.43 
         3002.3           39.34 
         3002.6           41.11 
         3002.9           46.46 
         3003.2           56.74 
         3003.5            72.3 
         3003.8           92.24 
         3004.1           114.5 
         3004.4           136.6 
         3004.7           155.5 
           3005             169 
         3005.3           175.3 
         3005.6           173.6 
         3005.9           164.3 
         3006.2           148.8 
         3006.5           129.6 
         3006.8           109.9 
         3007.1           92.73 
         3007.4           80.22 
         3007.7           73.69 
           3008           73.58 
         3008.3           79.76 
         3008.6           91.97 
         3008.9           110.1 
         3009.2           133.7 
         3009.5           161.9 
         3009.8           191.5 
         3010.1           217.9 
         3010.4           235.9 
         3010.7           242.6 
           3011           238.3 
         3011.3           226.9 
         3011.6           213.8 
         3011.9           203.9 
         3012.2           199.3 
         3012.5           198.9 
         3012.8           200.2 
         3013.1           200.7 
         3013.4           199.2 
         3013.7           195.2 
           3014           189.1 
         3014.3           181.5 
         3014.6           173.7 
         3014.9             167 
         3015.2           162.2 
         3015.5           159.6 
         3015.8           158.6 
         3016.1           157.7 
         3016.4           155.6 
         3016.7           151.1 
           3017           143.9 
         3017.3           134.8 
         3017.6             125 
         3017.9           115.3 
         3018.2           105.9 
         3018.5           95.87 
         3018.8           84.74 
         3019.1           72.47 
         3019.4            59.7 
         3019.7           47.46 
           3020           36.95 
         3020.3           29.37 
         3020.6           25.79 
         3020.9           27.04 
         3021.2           33.39 
         3021.5           44.39 
         3021.8           58.75 
         3022.1           74.36 
         3022.4           88.72 
         3022.7           99.37 
           3023           104.6 
         3023.3           104.2 
         3023.6           99.13 
         3023.9           91.88 
         3024.2            84.6 
         3024.5           78.66 
         3024.8           74.32 
         3025.1           71.45 
         3025.4           70.28 
         3025.7           71.72 
           3026           76.69 
         3026.3           85.25 
         3026.6           96.03 
         3026.9             107 
         3027.2           116.3 
         3027.5           123.9 
         3027.8           131.3 
         3028.1           140.8 
         3028.4             154 
         3028.7           171.2 
           3029           189.9 
         3029.3           206.5 
         3029.6           217.9 
         3029.9           222.4 
         3030.2           220.8 
         3030.5           216.4 
         3030.8           213.5 
         3031.1           216.3 
         3031.4           226.8 
         3031.7           243.3 
           3032           260.9 
         3032.3             273 
         3032.6           273.8 
         3032.9           261.7 
         3033.2           239.7 
         3033.5           214.2 
         3033.8           192.7 
         3034.1           180.7 
         3034.4           179.7 
         3034.7             187 
           3035             197 
         3035.3           203.4 
         3035.6           201.4 
         3035.9           189.8 
         3036.2           170.1 
         3036.5           146.3 
         3036.8           123.6 
         3037.1           107.4 
         3037.4           101.2 
         3037.7           106.4 
           3038           121.6 
         3038.3           143.1 
         3038.6           166.7 
         3038.9           188.5 
         3039.2           205.8 
         3039.5           217.4 
         3039.8             222 
         3040.1           219.7 
         3040.4           211.3 
         3040.7           198.9 
           3041           185.8 
         3041.3           176.2 
         3041.6           173.5 
         3041.9           179.2 
         3042.2           192.3 
         3042.5           209.1 
         3042.8           224.9 
         3043.1           236.2 
         3043.4           241.4 
         3043.7           241.7 
           3044           239.5 
         3044.3           237.5 
         3044.6             237 
         3044.9           238.1 
         3045.2           239.2 
         3045.5           237.4 
         3045.8           229.8 
         3046.1           214.2 
         3046.4           190.7 
         3046.7           162.1 
           3047             133 
         3047.3           108.7 
         3047.6           93.52 
         3047.9           89.82 
         3048.2           97.75 
         3048.5           115.3 
         3048.8           138.3 
         3049.1           161.2 
         3049.4           178.4 
         3049.7           185.8 
           3050           183.2 
         3050.3           173.8 
         3050.6           163.1 
         3050.9           156.4 
         3051.2           156.2 
         3051.5           162.5 
         3051.8           172.7 
         3052.1           183.2 
         3052.4           190.2 
         3052.7             191 
           3053           184.8 
         3053.3           173.3 
         3053.6           160.1 
         3053.9           149.3 
         3054.2           144.1 
         3054.5           145.1 
         3054.8           150.8 
         3055.1           157.7 
         3055.4           162.5 
         3055.7           162.8 
           3056           158.2 
         3056.3           149.6 
         3056.6           139.2 
         3056.9           128.5 
         3057.2             119 
         3057.5           110.9 
         3057.8           104.2 
         3058.1           98.31 
         3058.4           93.76 
         3058.7           91.92 
           3059           94.91 
         3059.3           104.6 
         3059.6           121.6 
         3059.9           144.7 
         3060.2           171.1 
         3060.5           197.8 
         3060.8           221.9 
         3061.1           241.2 
         3061.4           254.3 
         3061.7           260.1 
           3062           257.3 
         3062.3           244.5 
         3062.6           221.4 
         3062.9           189.7 
         3063.2           153.8 
         3063.5           119.3 
         3063.8           91.59 
         3064.1           73.46 
         3064.4           64.93 
         3064.7           63.66 
           3065           66.34 
         3065.3           70.22 
         3065.6           73.84 
         3065.9           77.07 
         3066.2            80.4 
         3066.5           84.13 
         3066.8           88.02 
         3067.1           91.59 
         3067.4           94.71 
         3067.7           97.77 
           3068           101.3 
         3068.3           105.2 
         3068.6           108.8 
         3068.9           110.6 
         3069.2           109.9 
         3069.5           107.2 
         3069.8           104.7 
         3070.1           105.7 
         3070.4           112.6 
         3070.7           126.7 
           3071           146.7 
         3071.3           170.4 
         3071.6           195.6 
         3071.9           220.8 
         3072.2           244.9 
         3072.5           266.3 
         3072.8           282.8 
         3073.1           292.4 
         3073.4           294.8 
         3073.7           291.6 
           3074           285.4 
         3074.3           278.3 
         3074.6           271.8 
         3074.9           267.6 
         3075.2           267.8 
         3075.5             275 
         3075.8             290 
         3076.1           310.2 
         3076.4             330 
         3076.7           343.4 
           3077           346.6 
         3077.3           339.6 
         3077.6           325.6 
         3077.9             309 
         3078.2           293.1 
         3078.5           278.9 
         3078.8           265.1 
         3079.1             249 
         3079.4             229 
         3079.7           205.1 
           3080           178.9 
         3080.3           152.4 
         3080.6           127.5 
         3080.9           105.4 
         3081.2            86.9 
         3081.5           72.93 
         3081.8           64.11 
         3082.1           60.46 
         3082.4           61.25 
         3082.7           65.26 
           3083           71.54 
         3083.3           79.84 
         3083.6           90.45 
         3083.9           103.5 
         3084.2           118.6 
         3084.5           134.9 
         3084.8           151.6 
         3085.1           167.8 
         3085.4           182.3 
         3085.7             194 
           3086           202.4 
         3086.3           209.1 
         3086.6           217.7 
         3086.9           232.2 
         3087.2           254.8 
         3087.5             284 
         3087.8           314.1 
         3088.1           336.7 
         3088.4           343.9 
         3088.7           331.2 
           3089           299.7 
         3089.3           255.4 
         3089.6             207 
         3089.9           162.4 
         3090.2           126.5 
         3090.5           100.7 
         3090.8           83.54 
         3091.1           72.21 
         3091.4           64.14 
         3091.7            57.7 
           3092           52.59 
         3092.3           49.67 
         3092.6           50.46 
         3092.9           56.19 
         3093.2           67.06 
         3093.5           81.84 
         3093.8           98.15 
         3094.1           113.2 
         3094.4           124.8 
         3094.7           131.5 
           3095           132.9 
         3095.3           130.2 
         3095.6           126.1 
         3095.9           124.5 
         3096.2           130.2 
         3096.5           146.5 
         3096.8           173.5 
         3097.1           206.1 
         3097.4           235.8 
         3097.7           253.3 
           3098           252.3 
         3098.3           232.6 
         3098.6           199.8 
         3098.9             163 
         3099.2             131 
         3099.5           109.8 
         3099.8           100.9 
         3100.1           101.9 
         3100.4           107.9 
         3100.7           114.2 
           3101           118.3 
         3101.3             126 
         3101.6           137.5 
         3101.9           157.9 
         3102.2           187.2 
         3102.5           222.6 
         3102.8           259.8 
         3103.1           294.4 
         3103.4           322.2 
         3103.7           339.7 
           3104           344.2 
         3104.3           333.8 
         3104.6           309.3 
         3104.9           273.7 
         3105.2           233.2 
         3105.5           195.1 
         3105.8           165.7 
         3106.1           148.6 
         3106.4           144.6 
         3106.7           152.6 
           3107           169.2 
         3107.3           190.2 
         3107.6           209.9 
         3107.9           223.5 
         3108.2           228.7 
         3108.5           227.4 
         3108.8           225.1 
         3109.1           228.4 
         3109.4           242.1 
         3109.7           267.5 
           3110           300.8 
         3110.3           335.4 
         3110.6             363 
         3110.9             377 
         3111.2           373.9 
         3111.5           355.2 
         3111.8           326.4 
         3112.1           294.9 
         3112.4           267.8 
         3112.7           250.1 
           3113           245.4 
         3113.3           255.4 
         3113.6           281.2 
         3113.9           322.6 
         3114.2           377.2 
         3114.5             439 
         3114.8           498.9 
         3115.1             545 
         3115.4           566.5 
         3115.7           557.5 
           3116           519.9 
         3116.3           464.7 
         3116.6             409 
         3116.9             371 
         3117.2             363 
         3117.5           387.5 
         3117.8           436.6 
         3118.1           495.3 
         3118.4             548 
         3118.7           583.6 
           3119           599.7 
         3119.3           601.4 
         3119.6           597.4 
         3119.9           593.5 
         3120.2           588.6 
         3120.5           574.6 
         3120.8           541.6 
         3121.1             486 
         3121.4           413.3 
         3121.7           338.2 
           3122             278 
         3122.3           244.1 
         3122.6           238.6 
         3122.9           254.5 
         3123.2           280.3 
         3123.5           305.1 
         3123.8           323.2 
         3124.1           334.5 
         3124.4           342.8 
         3124.7           352.8 
           3125           366.3 
         3125.3           381.4 
         3125.6           394.9 
         3125.9           404.8 
         3126.2           410.8 
         3126.5             413 
         3126.8           409.9 
         3127.1           398.7 
         3127.4           377.8 
         3127.7           348.7 
           3128           316.2 
         3128.3           286.1 
         3128.6           262.7 
         3128.9           248.4 
         3129.2           244.7 
         3129.5           252.2 
         3129.8           271.6 
         3130.1             304 
         3130.4             349 
         3130.7           403.5 
           3131           460.4 
         3131.3           507.8 
         3131.6           533.8 
         3131.9           530.6 
         3132.2           499.3 
         3132.5           449.7 
         3132.8           394.8 
         3133.1           346.8 
         3133.4           314.3 
         3133.7           301.7 
           3134           310.2 
         3134.3           335.2 
         3134.6           366.9 
         3134.9           392.6 
         3135.2           401.5 
         3135.5           390.9 
         3135.8           367.5 
         3136.1           343.1 
         3136.4             331 
         3136.7           339.9 
           3137             372 
         3137.3           422.4 
         3137.6           480.6 
         3137.9           533.1 
         3138.2           568.1 
         3138.5           580.6 
         3138.8           572.7 
         3139.1           552.5 
         3139.4           529.3 
         3139.7           510.9 
           3140             501 
         3140.3           499.4 
         3140.6           502.6 
         3140.9           506.1 
         3141.2           507.3 
         3141.5           506.6 
         3141.8           505.6 
         3142.1             504 
         3142.4           498.9 
         3142.7             487 
           3143             469 
         3143.3           450.1 
         3143.6           436.7 
         3143.9           431.1 
         3144.2           430.1 
         3144.5           427.6 
         3144.8           418.6 
         3145.1           401.8 
         3145.4           378.7 
         3145.7           351.6 
           3146           324.2 
         3146.3           301.7 
         3146.6             292 
         3146.9           303.2 
         3147.2             341 
         3147.5           404.6 
         3147.8             486 
         3148.1           569.8 
         3148.4           637.4 
         3148.7           672.3 
           3149           666.5 
         3149.3           624.1 
         3149.6           559.1 
         3149.9             489 
         3150.2           428.1 
         3150.5           382.8 
         3150.8           353.3 
         3151.1           336.5 
         3151.4           329.7 
         3151.7           331.1 
           3152           339.8 
         3152.3           353.4 
         3152.6           368.3 
         3152.9           380.8 
         3153.2           389.5 
         3153.5           396.8 
         3153.8           407.9 
         3154.1           427.4 
         3154.4           455.2 
         3154.7           484.8 
           3155           507.6 
         3155.3           518.2 
         3155.6           518.7 
         3155.9           517.2 
         3156.2           523.6 
         3156.5           544.5 
         3156.8           580.6 
         3157.1           627.3 
         3157.4           677.5 
         3157.7             725 
           3158           766.2 
         3158.3           799.6 
         3158.6           823.4 
         3158.9           833.5 
         3159.2           824.4 
         3159.5           793.9 
         3159.8           747.6 
         3160.1           700.2 
         3160.4           669.9 
         3160.7           668.4 
           3161           695.1 
         3161.3           738.1 
         3161.6           782.8 
         3161.9           820.2 
         3162.2           849.1 
         3162.5           872.5 
         3162.8           891.2 
         3163.1             904 
         3163.4           910.3 
         3163.7           912.8 
           3164           916.3 
         3164.3           923.7 
         3164.6           934.2 
         3164.9           946.7 
         3165.2           963.6 
         3165.5           992.8 
         3165.8            1045 
         3166.1            1128 
         3166.4            1241 
         3166.7            1369 
           3167            1487 
         3167.3            1566 
         3167.6            1587 
         3167.9            1548 
         3168.2            1468 
         3168.5            1386 
         3168.8            1335 
         3169.1            1329 
         3169.4            1356 
         3169.7            1384 
           3170            1382 
         3170.3            1339 
         3170.6            1266 
         3170.9            1188 
         3171.2            1131 
         3171.5            1105 
         3171.8            1105 
         3172.1            1110 
         3172.4            1108 
         3172.7            1093 
           3173            1080 
         3173.3            1088 
         3173.6            1134 
         3173.9            1221 
         3174.2            1338 
         3174.5            1466 
         3174.8            1582 
         3175.1            1670 
         3175.4            1720 
         3175.7            1725 
           3176            1682 
         3176.3            1600 
         3176.6            1491 
         3176.9            1382 
         3177.2            1297 
         3177.5            1256 
         3177.8            1265 
         3178.1            1308 
