# Granada HRES Library
# atmosphere = Phoenix  (atmosphere model used)
# feh = 0  (value for [Fe/H] for the model.)
# logg = 5 log(cm/s2) (value for Log(G) for the model.)
# teff = 3000 K (value for the effective temperature for the model. Temperatures are given in K)
#
# column 1: WAVELENGTH (ANGSTROM), Wavelength in Angstrom
# column 2: FLUX (ERG/CM2/S/A), Flux in erg/cm2/s/A
         3000.2           12.29 
         3000.5           10.58 
         3000.8           9.329 
         3001.1            8.59 
         3001.4           8.274 
         3001.7           8.236 
           3002           8.421 
         3002.3           8.976 
         3002.6           10.29 
         3002.9           12.89 
         3003.2           17.29 
         3003.5           23.71 
         3003.8           32.01 
         3004.1            41.5 
         3004.4           51.11 
         3004.7           59.58 
           3005           65.69 
         3005.3            68.5 
         3005.6           67.53 
         3005.9           62.89 
         3006.2           55.27 
         3006.5           45.91 
         3006.8           36.21 
         3007.1           27.61 
         3007.4            21.1 
         3007.7           17.26 
           3008           16.23 
         3008.3           17.91 
         3008.6           22.13 
         3008.9           28.75 
         3009.2           37.61 
         3009.5           48.25 
         3009.8           59.67 
         3010.1           70.33 
         3010.4           78.44 
         3010.7           82.71 
           3011           82.92 
         3011.3           80.21 
         3011.6           76.62 
         3011.9           74.23 
         3012.2           74.26 
         3012.5           76.73 
         3012.8           80.58 
         3013.1           84.35 
         3013.4           86.77 
         3013.7           87.09 
           3014           85.15 
         3014.3           81.36 
         3014.6           76.43 
         3014.9           71.15 
         3015.2           66.02 
         3015.5           61.18 
         3015.8            56.5 
         3016.1           51.79 
         3016.4           46.93 
         3016.7           41.89 
           3017           36.79 
         3017.3           31.88 
         3017.6           27.44 
         3017.9           23.64 
         3018.2           20.44 
         3018.5           17.64 
         3018.8              15 
         3019.1           12.42 
         3019.4           9.959 
         3019.7           7.726 
           3020           5.887 
         3020.3           4.603 
         3020.6           4.012 
         3020.9           4.221 
         3021.2           5.272 
         3021.5           7.114 
         3021.8           9.559 
         3022.1           12.29 
         3022.4            14.9 
         3022.7           16.96 
           3023           18.19 
         3023.3           18.55 
         3023.6           18.27 
         3023.9            17.7 
         3024.2           17.16 
         3024.5           16.75 
         3024.8           16.46 
         3025.1           16.37 
         3025.4           16.86 
         3025.7           18.62 
           3026           22.42 
         3026.3           28.75 
         3026.6           37.54 
         3026.9            48.2 
         3027.2           59.73 
         3027.5           71.19 
         3027.8           81.92 
         3028.1           91.68 
         3028.4           100.5 
         3028.7           108.8 
           3029           116.1 
         3029.3           122.2 
         3029.6             126 
         3029.9           126.9 
         3030.2           124.4 
         3030.5           119.1 
         3030.8           112.9 
         3031.1             108 
         3031.4             107 
         3031.7           111.2 
           3032             120 
         3032.3             131 
         3032.6           140.7 
         3032.9           146.1 
         3033.2           145.6 
         3033.5           139.9 
         3033.8             131 
         3034.1           121.3 
         3034.4           112.7 
         3034.7           105.4 
           3035           98.64 
         3035.3           91.06 
         3035.6           81.56 
         3035.9              70 
         3036.2           57.28 
         3036.5           44.85 
         3036.8           34.31 
         3037.1           27.04 
         3037.4           23.94 
         3037.7           25.34 
           3038           31.01 
         3038.3           40.13 
         3038.6           51.33 
         3038.9           62.95 
         3039.2           73.27 
         3039.5           81.01 
         3039.8           85.61 
         3040.1           87.35 
         3040.4           87.03 
         3040.7           85.57 
           3041           83.69 
         3041.3           81.99 
         3041.6           81.07 
         3041.9           81.58 
         3042.2           83.83 
         3042.5           87.42 
         3042.8           91.35 
         3043.1           94.48 
         3043.4           96.11 
         3043.7           96.15 
           3044           94.92 
         3044.3            92.8 
         3044.6           89.99 
         3044.9           86.41 
         3045.2           81.81 
         3045.5           75.84 
         3045.8           68.23 
         3046.1           59.06 
         3046.4           48.89 
         3046.7           38.75 
           3047           29.89 
         3047.3           23.38 
         3047.6           19.91 
         3047.9            19.7 
         3048.2           22.48 
         3048.5            27.5 
         3048.8           33.62 
         3049.1           39.44 
         3049.4           43.65 
         3049.7           45.48 
           3050           45.13 
         3050.3           43.79 
         3050.6           43.23 
         3050.9           45.07 
         3051.2           50.21 
         3051.5           58.45 
         3051.8           68.59 
         3052.1           78.67 
         3052.4           86.56 
         3052.7           90.39 
           3053           89.39 
         3053.3           84.24 
         3053.6           76.98 
         3053.9           70.32 
         3054.2           66.56 
         3054.5            66.7 
         3054.8            70.1 
         3055.1           74.86 
         3055.4           78.64 
         3055.7           79.52 
           3056           76.58 
         3056.3           70.04 
         3056.6           60.94 
         3056.9           50.74 
         3057.2           40.83 
         3057.5           32.23 
         3057.8           25.46 
         3058.1           20.65 
         3058.4           17.77 
         3058.7           16.89 
           3059           18.29 
         3059.3           22.32 
         3059.6           29.18 
         3059.9           38.73 
         3060.2           50.41 
         3060.5           63.39 
         3060.8           76.76 
         3061.1           89.72 
         3061.4           101.6 
         3061.7           111.7 
           3062           118.8 
         3062.3           121.2 
         3062.6           117.8 
         3062.9           108.3 
         3063.2           94.22 
         3063.5           78.47 
         3063.8           64.51 
         3064.1           55.03 
         3064.4            51.1 
         3064.7           51.97 
           3065           55.51 
         3065.3           59.16 
         3065.6           60.98 
         3065.9           60.24 
         3066.2           57.45 
         3066.5           53.84 
         3066.8           50.74 
         3067.1           49.13 
         3067.4           49.63 
         3067.7           52.48 
           3068           57.54 
         3068.3           64.21 
         3068.6           71.51 
         3068.9           78.46 
         3069.2           84.48 
         3069.5           89.83 
         3069.8           95.52 
         3070.1           102.9 
         3070.4           112.6 
         3070.7           124.6 
           3071           138.1 
         3071.3           152.3 
         3071.6           167.4 
         3071.9           183.9 
         3072.2           201.9 
         3072.5           219.7 
         3072.8           233.5 
         3073.1           239.7 
         3073.4           236.3 
         3073.7           224.6 
           3074           207.9 
         3074.3           189.6 
         3074.6           172.6 
         3074.9           158.3 
         3075.2           148.4 
         3075.5           144.3 
         3075.8           146.4 
         3076.1           153.8 
         3076.4           163.4 
         3076.7           171.6 
           3077           175.5 
         3077.3             174 
         3077.6           167.8 
         3077.9           158.7 
         3078.2           148.5 
         3078.5           138.1 
         3078.8           127.5 
         3079.1           116.1 
         3079.4           103.5 
         3079.7           89.59 
           3080           75.06 
         3080.3           60.81 
         3080.6           47.72 
         3080.9           36.45 
         3081.2           27.38 
         3081.5           20.65 
         3081.8            16.3 
         3082.1           14.28 
         3082.4           14.51 
         3082.7           16.87 
           3083           21.23 
         3083.3           27.43 
         3083.6           35.15 
         3083.9           43.93 
         3084.2           53.23 
         3084.5           62.63 
         3084.8           71.86 
         3085.1           80.64 
         3085.4           88.48 
         3085.7           94.72 
           3086           99.04 
         3086.3           101.9 
         3086.6           104.4 
         3086.9           108.2 
         3087.2           113.9 
         3087.5           121.1 
         3087.8           128.2 
         3088.1           132.7 
         3088.4           132.3 
         3088.7           125.9 
           3089           114.1 
         3089.3           98.62 
         3089.6           82.05 
         3089.9           66.58 
         3090.2           53.51 
         3090.5           43.06 
         3090.8           34.79 
         3091.1           28.02 
         3091.4           22.31 
         3091.7           17.53 
           3092           13.83 
         3092.3           11.47 
         3092.6           10.72 
         3092.9           11.72 
         3093.2           14.49 
         3093.5           18.78 
         3093.8            24.2 
         3094.1            30.2 
         3094.4           36.21 
         3094.7           41.68 
           3095           46.24 
         3095.3           49.75 
         3095.6            52.5 
         3095.9           55.23 
         3096.2           59.09 
         3096.5           65.21 
         3096.8           73.95 
         3097.1           84.37 
         3097.4           94.13 
         3097.7           100.2 
           3098           100.2 
         3098.3           93.36 
         3098.6           81.21 
         3098.9           66.57 
         3099.2           52.59 
         3099.5           41.61 
         3099.8           34.58 
         3100.1           31.13 
         3100.4           30.11 
         3100.7           30.43 
           3101           31.74 
         3101.3            40.6 
         3101.6           51.16 
         3101.9           67.31 
         3102.2           89.02 
         3102.5           115.1 
         3102.8           143.4 
         3103.1           170.9 
         3103.4           194.3 
         3103.7           209.7 
           3104           214.7 
         3104.3           208.1 
         3104.6           191.5 
         3104.9           168.8 
         3105.2           145.3 
         3105.5           126.4 
         3105.8           115.4 
         3106.1           113.2 
         3106.4           118.6 
         3106.7           129.3 
           3107           142.4 
         3107.3           155.6 
         3107.6           166.6 
         3107.9           174.2 
         3108.2           179.3 
         3108.5           185.6 
         3108.8             198 
         3109.1           220.7 
         3109.4           254.8 
         3109.7           296.8 
           3110           339.2 
         3110.3           372.8 
         3110.6             390 
         3110.9           387.4 
         3111.2             367 
         3111.5           335.2 
         3111.8           299.9 
         3112.1             268 
         3112.4           243.9 
         3112.7           230.1 
           3113           228.4 
         3113.3           240.7 
         3113.6           268.3 
         3113.9             311 
         3114.2             365 
         3114.5           422.6 
         3114.8           473.1 
         3115.1           505.2 
         3115.4           510.7 
         3115.7           487.6 
           3116           441.2 
         3116.3             384 
         3116.6           331.6 
         3116.9           298.9 
         3117.2           295.2 
         3117.5           321.2 
         3117.8           369.1 
         3118.1           425.4 
         3118.4           475.4 
         3118.7           509.5 
           3119             525 
         3119.3           526.7 
         3119.6           521.8 
         3119.9           514.8 
         3120.2           504.3 
         3120.5           485.5 
         3120.8           453.7 
         3121.1           408.7 
         3121.4           356.9 
         3121.7           308.6 
           3122           273.5 
         3122.3           256.9 
         3122.6             258 
         3122.9           271.8 
         3123.2             292 
         3123.5           313.8 
         3123.8           334.6 
         3124.1           353.9 
         3124.4           371.6 
         3124.7           387.8 
           3125           403.2 
         3125.3           418.9 
         3125.6           436.3 
         3125.9           456.3 
         3126.2           477.2 
         3126.5           493.9 
         3126.8             499 
         3127.1           486.8 
         3127.4             457 
         3127.7           415.9 
           3128           373.3 
         3128.3           337.9 
         3128.6           314.5 
         3128.9           303.7 
         3129.2             304 
         3129.5           314.1 
         3129.8           333.2 
         3130.1           360.2 
         3130.4           392.6 
         3130.7           425.3 
           3131           451.4 
         3131.3           464.1 
         3131.6           458.3 
         3131.9           432.8 
         3132.2             390 
         3132.5           336.4 
         3132.8           280.4 
         3133.1           231.2 
         3133.4           196.9 
         3133.7           182.9 
           3134           190.3 
         3134.3           214.9 
         3134.6           247.8 
         3134.9           278.2 
         3135.2           297.8 
         3135.5           303.3 
         3135.8           298.6 
         3136.1           292.4 
         3136.4           295.8 
         3136.7             318 
           3137           363.4 
         3137.3           429.1 
         3137.6           504.8 
         3137.9           574.4 
         3138.2           622.1 
         3138.5           638.3 
         3138.8           622.3 
         3139.1           582.7 
         3139.4           532.5 
         3139.7           484.9 
           3140             450 
         3140.3           432.5 
         3140.6           432.1 
         3140.9           444.3 
         3141.2             462 
         3141.5           477.8 
         3141.8           485.6 
         3142.1           481.7 
         3142.4           465.3 
         3142.7           439.6 
           3143           411.7 
         3143.3             390 
         3143.6           380.8 
         3143.9           383.8 
         3144.2           393.7 
         3144.5           403.5 
         3144.8           408.4 
         3145.1           408.3 
         3145.4           404.9 
         3145.7           399.5 
           3146           392.6 
         3146.3           386.2 
         3146.6           386.6 
         3146.9             403 
         3147.2             443 
         3147.5           506.3 
         3147.8           583.7 
         3148.1           658.1 
         3148.4           711.2 
         3148.7           729.7 
           3149           709.5 
         3149.3           656.5 
         3149.6           583.4 
         3149.9             506 
         3150.2           438.4 
         3150.5           391.1 
         3150.8           369.8 
         3151.1           375.1 
         3151.4           402.5 
         3151.7           443.9 
           3152           489.7 
         3152.3           530.1 
         3152.6           557.6 
         3152.9           568.5 
         3153.2           564.2 
         3153.5             552 
         3153.8           544.4 
         3154.1           554.3 
         3154.4           589.3 
         3154.7           648.1 
           3155           720.5 
         3155.3           793.2 
         3155.6           855.3 
         3155.9           902.2 
         3156.2           935.6 
         3156.5           960.1 
         3156.8             980 
         3157.1           997.5 
         3157.4            1012 
         3157.7            1022 
           3158            1029 
         3158.3            1035 
         3158.6            1041 
         3158.9            1044 
         3159.2            1040 
         3159.5            1022 
         3159.8             991 
         3160.1           956.2 
         3160.4           931.6 
         3160.7           928.1 
           3161           947.7 
         3161.3           982.9 
         3161.6            1020 
         3161.9            1050 
         3162.2            1064 
         3162.5            1062 
         3162.8            1041 
         3163.1            1005 
         3163.4           958.6 
         3163.7           909.5 
           3164           868.7 
         3164.3           844.4 
         3164.6           841.6 
         3164.9           863.7 
         3165.2           915.2 
         3165.5            1000 
         3165.8            1122 
         3166.1            1274 
         3166.4            1442 
         3166.7            1599 
           3167            1721 
         3167.3            1782 
         3167.6            1769 
         3167.9            1692 
         3168.2            1577 
         3168.5            1465 
         3168.8            1392 
         3169.1            1376 
         3169.4            1414 
         3169.7            1477 
           3170            1534 
         3170.3            1565 
         3170.6            1564 
         3170.9            1545 
         3171.2            1529 
         3171.5            1526 
         3171.8            1538 
         3172.1            1558 
         3172.4            1576 
         3172.7            1589 
           3173            1604 
         3173.3            1634 
         3173.6            1685 
         3173.9            1752 
         3174.2            1822 
         3174.5            1878 
         3174.8            1913 
         3175.1            1928 
         3175.4            1930 
         3175.7            1925 
           3176            1912 
         3176.3            1885 
         3176.6            1840 
         3176.9            1780 
         3177.2            1716 
         3177.5            1666 
         3177.8            1640 
         3178.1            1634 
