# Granada HRES Library
# atmosphere = Phoenix  (atmosphere model used)
# feh = 3  (value for [Fe/H] for the model.)
# logg = 2 log(cm/s2) (value for Log(G) for the model.)
# teff = 3500 K (value for the effective temperature for the model. Temperatures are given in K)
#
# column 1: WAVELENGTH (ANGSTROM), Wavelength in Angstrom
# column 2: FLUX (ERG/CM2/S/A), Flux in erg/cm2/s/A
         3000.2           151.9 
         3000.5           133.8 
         3000.8           122.3 
         3001.1           116.3 
         3001.4           113.6 
         3001.7           111.6 
           3002           108.8 
         3002.3           105.9 
         3002.6           105.5 
         3002.9           110.9 
         3003.2           124.6 
         3003.5           147.5 
         3003.8           178.3 
         3004.1             214 
         3004.4           250.5 
         3004.7           283.6 
           3005           309.6 
         3005.3           325.1 
         3005.6           328.5 
         3005.9           319.7 
         3006.2           300.7 
         3006.5           275.4 
         3006.8           248.4 
         3007.1           224.3 
         3007.4           206.6 
         3007.7           197.8 
           3008           198.8 
         3008.3           209.6 
         3008.6           229.1 
         3008.9           256.5 
         3009.2           291.4 
         3009.5           331.9 
         3009.8           373.7 
         3010.1             409 
         3010.4           429.2 
         3010.7           429.5 
           3011           411.2 
         3011.3           382.5 
         3011.6           354.3 
         3011.9             335 
         3012.2           328.2 
         3012.5             332 
         3012.8           341.6 
         3013.1             352 
         3013.4           359.8 
         3013.7           363.7 
           3014           363.5 
         3014.3           360.2 
         3014.6           355.7 
         3014.9             352 
         3015.2           350.4 
         3015.5           350.6 
         3015.8           351.5 
         3016.1           351.3 
         3016.4           348.6 
         3016.7           341.9 
           3017           330.8 
         3017.3           315.9 
         3017.6           299.1 
         3017.9           281.3 
         3018.2           262.7 
         3018.5           242.5 
         3018.8           219.8 
         3019.1           194.5 
         3019.4           167.9 
         3019.7           142.2 
           3020           119.7 
         3020.3           103.1 
         3020.6           94.99 
         3020.9           97.12 
         3021.2             110 
         3021.5             132 
         3021.8           160.2 
         3022.1           190.3 
         3022.4           217.1 
         3022.7             236 
           3023           244.3 
         3023.3           241.1 
         3023.6           228.8 
         3023.9           211.5 
         3024.2           194.1 
         3024.5           179.9 
         3024.8           169.7 
         3025.1           163.3 
         3025.4           160.3 
         3025.7           161.1 
           3026           166.5 
         3026.3           176.4 
         3026.6           189.1 
         3026.9           201.8 
         3027.2           212.5 
         3027.5           221.2 
         3027.8           230.1 
         3028.1           242.3 
         3028.4           260.2 
         3028.7           284.5 
           3029           312.5 
         3029.3           339.8 
         3029.6           361.7 
         3029.9           375.4 
         3030.2           381.9 
         3030.5           386.4 
         3030.8           396.5 
         3031.1           419.4 
         3031.4           457.5 
         3031.7           505.8 
           3032           551.5 
         3032.3           578.9 
         3032.6           576.8 
         3032.9           543.9 
         3033.2           489.5 
         3033.5             429 
         3033.8           377.3 
         3034.1           344.4 
         3034.4             333 
         3034.7           338.5 
           3035           352.1 
         3035.3           363.9 
         3035.6           365.8 
         3035.9           354.5 
         3036.2             331 
         3036.5           300.7 
         3036.8           271.4 
         3037.1           251.1 
         3037.4           245.9 
         3037.7           257.5 
           3038           282.4 
         3038.3           313.9 
         3038.6           345.7 
         3038.9           373.9 
         3039.2           397.7 
         3039.5           417.2 
         3039.8           431.4 
         3040.1           437.5 
         3040.4           433.2 
         3040.7           419.2 
           3041           400.2 
         3041.3           383.7 
         3041.6           377.7 
         3041.9           386.2 
         3042.2           407.9 
         3042.5           435.2 
         3042.8           458.9 
         3043.1           471.6 
         3043.4           471.9 
         3043.7           463.8 
           3044           454.2 
         3044.3           449.3 
         3044.6           452.3 
         3044.9           462.1 
         3045.2             474 
         3045.5             481 
         3045.8           475.7 
         3046.1           453.6 
         3046.4           414.6 
         3046.7           363.7 
           3047           309.9 
         3047.3           263.3 
         3047.6             232 
         3047.9           220.6 
         3048.2           229.4 
         3048.5           254.8 
         3048.8           290.4 
         3049.1           327.3 
         3049.4           356.2 
         3049.7           370.3 
           3050           367.9 
         3050.3           352.9 
         3050.6           332.6 
         3050.9           314.7 
         3051.2           303.6 
         3051.5           300.2 
         3051.8           302.5 
         3052.1           307.2 
         3052.4           310.5 
         3052.7           309.4 
           3053           302.6 
         3053.3           291.2 
         3053.6           278.6 
         3053.9           268.2 
         3054.2           262.7 
         3054.5             262 
         3054.8           264.3 
         3055.1           266.5 
         3055.4           266.1 
         3055.7           261.9 
           3056             255 
         3056.3           247.5 
         3056.6           241.9 
         3056.9           239.9 
         3057.2           241.7 
         3057.5           245.8 
         3057.8           249.4 
         3058.1             250 
         3058.4           247.5 
         3058.7           244.7 
           3059             247 
         3059.3           259.4 
         3059.6           284.1 
         3059.9           319.1 
         3060.2           359.4 
         3060.5           398.4 
         3060.8           430.4 
         3061.1           451.9 
         3061.4           461.8 
         3061.7             460 
           3062           446.8 
         3062.3           421.8 
         3062.6           385.4 
         3062.9           341.1 
         3063.2           295.6 
         3063.5           257.2 
         3063.8           232.6 
         3064.1           223.6 
         3064.4           226.5 
         3064.7           234.3 
           3065           240.9 
         3065.3             244 
         3065.6           245.9 
         3065.9           251.6 
         3066.2           264.6 
         3066.5             285 
         3066.8           309.1 
         3067.1           332.3 
         3067.4           351.8 
         3067.7           367.9 
           3068           382.6 
         3068.3           396.5 
         3068.6           406.9 
         3068.9             409 
         3069.2           398.5 
         3069.5           375.9 
         3069.8           346.6 
         3070.1           319.7 
         3070.4           303.4 
         3070.7           302.9 
           3071           318.9 
         3071.3           349.2 
         3071.6           390.5 
         3071.9           439.6 
         3072.2           492.7 
         3072.5           544.6 
         3072.8           588.9 
         3073.1             620 
         3073.4           634.7 
         3073.7             633 
           3074           617.5 
         3074.3             592 
         3074.6           562.8 
         3074.9           538.1 
         3075.2           527.2 
         3075.5           536.4 
         3075.8           565.4 
         3076.1           605.3 
         3076.4           641.8 
         3076.7           661.6 
           3077           658.8 
         3077.3             637 
         3077.6           605.7 
         3077.9           574.9 
         3078.2           550.6 
         3078.5           532.5 
         3078.8           516.4 
         3079.1           496.9 
         3079.4           470.5 
         3079.7           436.8 
           3080           397.5 
         3080.3           355.8 
         3080.6           314.8 
         3080.9           277.9 
         3081.2           248.5 
         3081.5           229.2 
         3081.8           221.7 
         3082.1           224.8 
         3082.4           234.6 
         3082.7             246 
           3083           255.1 
         3083.3           261.3 
         3083.6           267.8 
         3083.9           279.5 
         3084.2           300.4 
         3084.5           332.3 
         3084.8           373.8 
         3085.1           420.2 
         3085.4           465.6 
         3085.7           504.8 
           3086           536.9 
         3086.3             566 
         3086.6             599 
         3086.9           641.9 
         3087.2           696.2 
         3087.5           756.9 
         3087.8           812.5 
         3088.1           848.2 
         3088.4           850.7 
         3088.7           814.1 
           3089           743.2 
         3089.3           652.5 
         3089.6           559.4 
         3089.9           477.9 
         3090.2           414.2 
         3090.5           366.8 
         3090.8           330.3 
         3091.1             299 
         3091.4           269.9 
         3091.7           243.2 
           3092           221.6 
         3092.3           209.7 
         3092.6           212.3 
         3092.9           232.5 
         3093.2           270.2 
         3093.5           321.2 
         3093.8           378.7 
         3094.1           434.6 
         3094.4           481.8 
         3094.7           514.3 
           3095           528.2 
         3095.3           522.9 
         3095.6           503.6 
         3095.9             482 
         3096.2           474.8 
         3096.5             498 
         3096.8           559.7 
         3097.1           653.7 
         3097.4           757.8 
         3097.7           840.5 
           3098           872.1 
         3098.3           838.2 
         3098.6           745.8 
         3098.9             620 
         3099.2           493.1 
         3099.5             392 
         3099.8           329.5 
         3100.1           303.7 
         3100.4           303.3 
         3100.7           315.1 
           3101           331.9 
         3101.3           394.1 
         3101.6             460 
         3101.9           556.8 
         3102.2           677.4 
         3102.5           803.6 
         3102.8           912.6 
         3103.1           988.6 
         3103.4            1029 
         3103.7            1039 
           3104            1031 
         3104.3            1007 
         3104.6           963.7 
         3104.9           895.2 
         3105.2           802.4 
         3105.5             695 
         3105.8           588.5 
         3106.1           497.6 
         3106.4           432.4 
         3106.7           397.6 
           3107           392.5 
         3107.3           411.2 
         3107.6           444.5 
         3107.9           480.5 
         3108.2           509.1 
         3108.5           524.4 
         3108.8           526.6 
         3109.1           521.7 
         3109.4           518.8 
         3109.7             528 
           3110           555.8 
         3110.3           600.9 
         3110.6           653.7 
         3110.9           697.2 
         3111.2           714.6 
         3111.5           696.3 
         3111.8           644.9 
         3112.1           574.2 
         3112.4           502.7 
         3112.7             447 
           3113           417.4 
         3113.3           417.9 
         3113.6           448.2 
         3113.9           506.3 
         3114.2             590 
         3114.5           694.7 
         3114.8           810.8 
         3115.1           921.5 
         3115.4            1004 
         3115.7            1039 
           3116            1016 
         3116.3           947.4 
         3116.6           860.7 
         3116.9             790 
         3117.2           761.7 
         3117.5           784.5 
         3117.8             848 
         3118.1           929.5 
         3118.4            1004 
         3118.7            1052 
           3119            1067 
         3119.3            1056 
         3119.6            1034 
         3119.9            1014 
         3120.2            1001 
         3120.5           985.9 
         3120.8           952.3 
         3121.1           890.2 
         3121.4           805.8 
         3121.7           722.2 
           3122           668.5 
         3122.3           665.3 
         3122.6           712.7 
         3122.9           790.8 
         3123.2           868.9 
         3123.5           920.7 
         3123.8           936.3 
         3124.1           925.1 
         3124.4           907.7 
         3124.7           902.9 
           3125           917.4 
         3125.3           944.1 
         3125.6           970.1 
         3125.9           985.8 
         3126.2           989.9 
         3126.5           985.4 
         3126.8           973.2 
         3127.1           948.8 
         3127.4           906.8 
         3127.7           845.9 
           3128           771.8 
         3128.3           695.6 
         3128.6             629 
         3128.9           580.5 
         3129.2           553.7 
         3129.5           547.7 
         3129.8           560.2 
         3130.1             592 
         3130.4           646.1 
         3130.7           725.1 
           3131             823 
         3131.3             923 
         3131.6            1001 
         3131.9            1039 
         3132.2            1028 
         3132.5             978 
         3132.8           907.1 
         3133.1           834.6 
         3133.4           775.8 
         3133.7           741.2 
           3134           735.2 
         3134.3           752.8 
         3134.6           779.8 
         3134.9           797.4 
         3135.2           792.4 
         3135.5           764.9 
         3135.8           728.1 
         3136.1           700.2 
         3136.4           695.9 
         3136.7           721.8 
           3137           775.9 
         3137.3           848.7 
         3137.6           924.8 
         3137.9           987.2 
         3138.2            1022 
         3138.5            1024 
         3138.8            1002 
         3139.1           972.9 
         3139.4           953.9 
         3139.7           960.6 
           3140           998.3 
         3140.3            1062 
         3140.6            1135 
         3140.9            1204 
         3141.2            1258 
         3141.5            1299 
         3141.8            1329 
         3142.1            1345 
         3142.4            1335 
         3142.7            1285 
           3143            1194 
         3143.3            1078 
         3143.6           960.7 
         3143.9           861.6 
         3144.2           787.1 
         3144.5           732.8 
         3144.8           691.1 
         3145.1           656.7 
         3145.4           629.3 
         3145.7           611.3 
           3146           607.4 
         3146.3           622.6 
         3146.6           660.8 
         3146.9           723.9 
         3147.2           810.7 
         3147.5           918.5 
         3147.8            1043 
         3148.1            1178 
         3148.4            1311 
         3148.7            1423 
           3149            1499 
         3149.3            1533 
         3149.6            1527 
         3149.9            1485 
         3150.2            1415 
         3150.5            1315 
         3150.8            1193 
         3151.1            1059 
         3151.4           931.5 
         3151.7           823.1 
           3152           740.9 
         3152.3           683.6 
         3152.6           645.6 
         3152.9           621.7 
         3153.2           610.8 
         3153.5           616.4 
         3153.8           643.6 
         3154.1             693 
         3154.4           757.1 
         3154.7             821 
           3155           869.9 
         3155.3             897 
         3155.6           906.7 
         3155.9           910.1 
         3156.2           917.2 
         3156.5           931.2 
         3156.8           949.4 
         3157.1           966.6 
         3157.4           979.6 
         3157.7           990.2 
           3158            1004 
         3158.3            1025 
         3158.6            1056 
         3158.9            1087 
         3159.2            1105 
         3159.5            1100 
         3159.8            1073 
         3160.1            1040 
         3160.4            1020 
         3160.7            1025 
           3161            1051 
         3161.3            1083 
         3161.6            1107 
         3161.9            1124 
         3162.2            1144 
         3162.5            1180 
         3162.8            1235 
         3163.1            1303 
         3163.4            1374 
         3163.7            1439 
           3164            1492 
         3164.3            1526 
         3164.6            1532 
         3164.9            1510 
         3165.2            1467 
         3165.5            1423 
         3165.8            1401 
         3166.1            1423 
         3166.4            1498 
         3166.7            1621 
           3167            1764 
         3167.3            1891 
         3167.6            1960 
         3167.9            1951 
         3168.2            1874 
         3168.5            1765 
         3168.8            1669 
         3169.1            1616 
         3169.4            1599 
         3169.7            1593 
           3170            1571 
         3170.3            1520 
         3170.6            1451 
         3170.9            1387 
         3171.2            1351 
         3171.5            1349 
         3171.8            1371 
         3172.1            1398 
         3172.4            1416 
         3172.7            1429 
           3173            1450 
         3173.3            1499 
         3173.6            1584 
         3173.9            1694 
         3174.2            1807 
         3174.5            1901 
         3174.8            1962 
         3175.1            1989 
         3175.4            1984 
         3175.7            1951 
           3176            1892 
         3176.3            1814 
         3176.6            1729 
         3176.9            1649 
         3177.2            1586 
         3177.5            1548 
         3177.8            1532 
         3178.1            1530 
