# Granada HRES Library
# atmosphere = Phoenix  (atmosphere model used)
# feh = -10  (value for [Fe/H] for the model.)
# logg = 3 log(cm/s2) (value for Log(G) for the model.)
# teff = 4000 K (value for the effective temperature for the model. Temperatures are given in K)
#
# column 1: WAVELENGTH (ANGSTROM), Wavelength in Angstrom
# column 2: FLUX (ERG/CM2/S/A), Flux in erg/cm2/s/A
         3000.2            2271 
         3000.5            2109 
         3000.8            1992 
         3001.1            1917 
         3001.4            1864 
         3001.7            1807 
           3002            1739 
         3002.3            1678 
         3002.6            1676 
         3002.9            1788 
         3003.2            2053 
         3003.5            2473 
         3003.8            3013 
         3004.1            3617 
         3004.4            4211 
         3004.7            4734 
           3005            5139 
         3005.3            5393 
         3005.6            5470 
         3005.9            5360 
         3006.2            5068 
         3006.5            4631 
         3006.8            4116 
         3007.1            3610 
         3007.4            3194 
         3007.7            2926 
           3008            2830 
         3008.3            2901 
         3008.6            3117 
         3008.9            3454 
         3009.2            3892 
         3009.5            4404 
         3009.8            4930 
         3010.1            5382 
         3010.4            5662 
         3010.7            5714 
           3011            5560 
         3011.3            5295 
         3011.6            5050 
         3011.9            4922 
         3012.2            4933 
         3012.5            5032 
         3012.8            5130 
         3013.1            5158 
         3013.4            5093 
         3013.7            4954 
           3014            4783 
         3014.3            4624 
         3014.6            4501 
         3014.9            4428 
         3015.2            4400 
         3015.5            4404 
         3015.8            4423 
         3016.1            4438 
         3016.4            4430 
         3016.7            4381 
           3017            4277 
         3017.3            4126 
         3017.6            3949 
         3017.9            3760 
         3018.2            3563 
         3018.5            3344 
         3018.8            3089 
         3019.1            2793 
         3019.4            2460 
         3019.7            2115 
           3020            1793 
         3020.3            1541 
         3020.6            1409 
         3020.9            1435 
         3021.2            1631 
         3021.5            1970 
         3021.8            2401 
         3022.1            2846 
         3022.4            3228 
         3022.7            3482 
           3023            3575 
         3023.3            3514 
         3023.6            3348 
         3023.9            3148 
         3024.2            2977 
         3024.5            2857 
         3024.8            2777 
         3025.1            2716 
         3025.4            2675 
         3025.7            2685 
           3026            2787 
         3026.3            3002 
         3026.6            3305 
         3026.9            3644 
         3027.2            3961 
         3027.5            4232 
         3027.8            4473 
         3028.1            4721 
         3028.4            5003 
         3028.7            5310 
           3029            5595 
         3029.3            5793 
         3029.6            5853 
         3029.9            5763 
         3030.2            5565 
         3030.5            5352 
         3030.8            5245 
         3031.1            5354 
         3031.4            5732 
         3031.7            6331 
           3032            6994 
         3032.3            7505 
         3032.6            7683 
         3032.9            7459 
         3033.2            6912 
         3033.5            6223 
         3033.8            5608 
         3034.1            5227 
         3034.4            5129 
         3034.7            5252 
           3035            5455 
         3035.3            5584 
         3035.6            5530 
         3035.9            5262 
         3036.2            4817 
         3036.5            4288 
         3036.8            3787 
         3037.1            3423 
         3037.4            3265 
         3037.7            3337 
           3038            3602 
         3038.3            3982 
         3038.6            4393 
         3038.9            4765 
         3039.2            5051 
         3039.5            5222 
         3039.8            5256 
         3040.1            5142 
         3040.4            4895 
         3040.7            4558 
           3041            4204 
         3041.3            3920 
         3041.6            3788 
         3041.9            3860 
         3042.2            4137 
         3042.5            4570 
         3042.8            5070 
         3043.1            5548 
         3043.4            5937 
         3043.7            6208 
           3044            6364 
         3044.3            6429 
         3044.6            6438 
         3044.9            6418 
         3045.2            6379 
         3045.5            6295 
         3045.8            6114 
         3046.1            5786 
         3046.4            5298 
         3046.7            4697 
           3047            4081 
         3047.3            3565 
         3047.6            3247 
         3047.9            3180 
         3048.2            3363 
         3048.5            3749 
         3048.8            4251 
         3049.1            4748 
         3049.4            5124 
         3049.7            5300 
           3050            5274 
         3050.3            5121 
         3050.6            4965 
         3050.9            4910 
         3051.2            5009 
         3051.5            5240 
         3051.8            5531 
         3052.1            5783 
         3052.4            5904 
         3052.7            5833 
           3053            5569 
         3053.3            5169 
         3053.6            4732 
         3053.9            4368 
         3054.2            4152 
         3054.5            4112 
         3054.8            4217 
         3055.1            4397 
         3055.4            4563 
         3055.7            4644 
           3056            4602 
         3056.3            4444 
         3056.6            4204 
         3056.9            3937 
         3057.2            3688 
         3057.5            3483 
         3057.8            3324 
         3058.1            3198 
         3058.4            3100 
         3058.7            3058 
           3059            3125 
         3059.3            3359 
         3059.6            3788 
         3059.9            4389 
         3060.2            5087 
         3060.5            5783 
         3060.8            6383 
         3061.1            6826 
         3061.4            7091 
         3061.7            7176 
           3062            7075 
         3062.3            6764 
         3062.6            6221 
         3062.9            5471 
         3063.2            4598 
         3063.5            3743 
         3063.8            3044 
         3064.1            2588 
         3064.4            2384 
         3064.7            2371 
           3065            2454 
         3065.3            2548 
         3065.6            2603 
         3065.9            2615 
         3066.2            2612 
         3066.5            2626 
         3066.8            2677 
         3067.1            2771 
         3067.4            2908 
         3067.7            3089 
           3068            3309 
         3068.3            3549 
         3068.6            3770 
         3068.9            3927 
         3069.2            3990 
         3069.5            3978 
         3069.8            3967 
         3070.1            4069 
         3070.4            4381 
         3070.7            4927 
           3071            5642 
         3071.3            6395 
         3071.6            7058 
         3071.9            7559 
         3072.2            7903 
         3072.5            8129 
         3072.8            8266 
         3073.1            8325 
         3073.4            8312 
         3073.7            8240 
           3074            8129 
         3074.3            7992 
         3074.6            7849 
         3074.9            7745 
         3075.2            7774 
         3075.5            8042 
         3075.8            8596 
         3076.1            9369 
         3076.4           10180 
         3076.7           10820 
           3077           11120 
         3077.3           11030 
         3077.6           10620 
         3077.9           10030 
         3078.2            9422 
         3078.5            8889 
         3078.8            8441 
         3079.1            8013 
         3079.4            7522 
         3079.7            6923 
           3080            6230 
         3080.3            5501 
         3080.6            4804 
         3080.9            4198 
         3081.2            3731 
         3081.5            3436 
         3081.8            3319 
         3082.1            3353 
         3082.4            3481 
         3082.7            3640 
           3083            3794 
         3083.3            3953 
         3083.6            4157 
         3083.9            4438 
         3084.2            4798 
         3084.5            5207 
         3084.8            5629 
         3085.1            6016 
         3085.4            6315 
         3085.7            6476 
           3086            6486 
         3086.3            6408 
         3086.6            6383 
         3086.9            6571 
         3087.2            7081 
         3087.5            7895 
         3087.8            8851 
         3088.1            9674 
         3088.4           10080 
         3088.7            9868 
           3089            9056 
         3089.3            7831 
         3089.6            6484 
         3089.9            5277 
         3090.2            4358 
         3090.5            3740 
         3090.8            3355 
         3091.1            3106 
         3091.4            2916 
         3091.7            2747 
           3092            2606 
         3092.3            2537 
         3092.6            2599 
         3092.9            2835 
         3093.2            3234 
         3093.5            3733 
         3093.8            4229 
         3094.1            4628 
         3094.4            4863 
         3094.7            4914 
           3095            4798 
         3095.3            4558 
         3095.6            4266 
         3095.9            4020 
         3096.2            3934 
         3096.5            4105 
         3096.8            4560 
         3097.1            5221 
         3097.4            5910 
         3097.7            6402 
           3098            6520 
         3098.3            6213 
         3098.6            5571 
         3098.9            4781 
         3099.2            4047 
         3099.5            3521 
         3099.8            3262 
         3100.1            3238 
         3100.4            3356 
         3100.7            3514 
           3101            3650 
         3101.3            3919 
         3101.6            4201 
         3101.9            4662 
         3102.2            5305 
         3102.5            6073 
         3102.8            6884 
         3103.1            7655 
         3103.4            8312 
         3103.7            8784 
           3104            8991 
         3104.3            8864 
         3104.6            8380 
         3104.9            7602 
         3105.2            6677 
         3105.5            5786 
         3105.8            5087 
         3106.1            4670 
         3106.4            4551 
         3106.7            4691 
           3107            5018 
         3107.3            5443 
         3107.6            5871 
         3107.9            6213 
         3108.2            6427 
         3108.5            6534 
         3108.8            6628 
         3109.1            6845 
         3109.4            7310 
         3109.7            8081 
           3110            9112 
         3110.3           10250 
         3110.6           11280 
         3110.9           11980 
         3111.2           12250 
         3111.5           12100 
         3111.8           11650 
         3112.1           11070 
         3112.4           10550 
         3112.7           10260 
           3113           10410 
         3113.3           11250 
         3113.6           12960 
         3113.9           15600 
         3114.2           18920 
         3114.5           22390 
         3114.8           25230 
         3115.1           26760 
         3115.4           26510 
         3115.7           24520 
           3116           21260 
         3116.3           17470 
         3116.6           13940 
         3116.9           11280 
         3117.2            9776 
         3117.5            9394 
         3117.8            9847 
         3118.1           10730 
         3118.4           11680 
         3118.7           12440 
           3119           13000 
         3119.3           13540 
         3119.6           14250 
         3119.9           15180 
         3120.2           16130 
         3120.5           16650 
         3120.8           16310 
         3121.1           14970 
         3121.4           12850 
         3121.7           10530 
           3122            8587 
         3122.3            7450 
         3122.6            7243 
         3122.9            7818 
         3123.2            8851 
         3123.5            9974 
         3123.8           10890 
         3124.1           11430 
         3124.4           11640 
         3124.7           11660 
           3125           11750 
         3125.3           12100 
         3125.6           12830 
         3125.9           13920 
         3126.2           15250 
         3126.5           16450 
         3126.8           17080 
         3127.1           16770 
         3127.4           15430 
         3127.7           13330 
           3128           10950 
         3128.3            8840 
         3128.6            7306 
         3128.9            6428 
         3129.2            6111 
         3129.5            6201 
         3129.8            6581 
         3130.1            7203 
         3130.4            8054 
         3130.7            9092 
           3131           10180 
         3131.3           11100 
         3131.6           11590 
         3131.9           11500 
         3132.2           10830 
         3132.5            9798 
         3132.8            8679 
         3133.1            7774 
         3133.4            7313 
         3133.7            7441 
           3134            8174 
         3134.3            9355 
         3134.6           10650 
         3134.9           11670 
         3135.2           12100 
         3135.5           11900 
         3135.8           11370 
         3136.1           10990 
         3136.4           11280 
         3136.7           12600 
           3137           15020 
         3137.3           18230 
         3137.6           21570 
         3137.9           24270 
         3138.2           25720 
         3138.5           25720 
         3138.8           24490 
         3139.1           22550 
         3139.4           20400 
         3139.7           18500 
           3140           17030 
         3140.3           16060 
         3140.6           15490 
         3140.9           15150 
         3141.2           14910 
         3141.5           14690 
         3141.8           14490 
         3142.1           14250 
         3142.4           13850 
         3142.7           13180 
           3143           12250 
         3143.3           11190 
         3143.6           10250 
         3143.9            9590 
         3144.2            9237 
         3144.5            9142 
         3144.8            9220 
         3145.1            9390 
         3145.4            9552 
         3145.7            9581 
           3146            9390 
         3146.3            9026 
         3146.6            8722 
         3146.9            8860 
         3147.2            9856 
         3147.5           11980 
         3147.8           15230 
         3148.1           19140 
         3148.4           22890 
         3148.7           25510 
           3149           26230 
         3149.3           24910 
         3149.6           22030 
         3149.9           18480 
         3150.2           15100 
         3150.5           12420 
         3150.8           10600 
         3151.1            9525 
         3151.4            8987 
         3151.7            8832 
           3152            8956 
         3152.3            9271 
         3152.6            9678 
         3152.9           10090 
         3153.2           10490 
         3153.5           11000 
         3153.8           11830 
         3154.1           13130 
         3154.4           14840 
         3154.7           16590 
           3155           17850 
         3155.3           18190 
         3155.6           17550 
         3155.9           16230 
         3156.2           14800 
         3156.5           13760 
         3156.8           13420 
         3157.1           13840 
         3157.4           14800 
         3157.7           16040 
           3158           17280 
         3158.3           18360 
         3158.6           19170 
         3158.9           19600 
         3159.2           19490 
         3159.5           18720 
         3159.8           17340 
         3160.1           15660 
         3160.4           14190 
         3160.7           13500 
           3161           14070 
         3161.3           16180 
         3161.6           19900 
         3161.9           25050 
         3162.2           31040 
         3162.5           36880 
         3162.8           41280 
         3163.1           43150 
         3163.4           42080 
         3163.7           38670 
           3164           34130 
         3164.3           29780 
         3164.6           26550 
         3164.9           24780 
         3165.2           24520 
         3165.5           25780 
         3165.8           28590 
         3166.1           32890 
         3166.4           38280 
         3166.7           43840 
           3167           48340 
         3167.3           50660 
         3167.6           50310 
         3167.9           47740 
         3168.2           44240 
         3168.5           41400 
         3168.8           40460 
         3169.1           41690 
         3169.4           44420 
         3169.7           47410 
           3170           49530 
         3170.3           50360 
         3170.6           50280 
         3170.9           50220 
         3171.2           51020 
         3171.5           52910 
         3171.8           55250 
         3172.1           56920 
         3172.4           57010 
         3172.7           55610 
           3173           53940 
         3173.3           53740 
         3173.6           56260 
         3173.9           61620 
         3174.2           68920 
         3174.5           76910 
         3174.8           84680 
         3175.1           91750 
         3175.4           97560 
         3175.7          101200 
           3176          101500 
         3176.3           97720 
         3176.6           89960 
         3176.9           79740 
         3177.2           69440 
         3177.5           61430 
         3177.8           56920 
         3178.1           55500 
