# Granada HRES Library
# atmosphere = Phoenix  (atmosphere model used)
# feh = 0  (value for [Fe/H] for the model.)
# logg = 2 log(cm/s2) (value for Log(G) for the model.)
# teff = 4000 K (value for the effective temperature for the model. Temperatures are given in K)
#
# column 1: WAVELENGTH (ANGSTROM), Wavelength in Angstrom
# column 2: FLUX (ERG/CM2/S/A), Flux in erg/cm2/s/A
         3000.2           807.4 
         3000.5           726.6 
         3000.8           675.3 
         3001.1           648.8 
         3001.4           636.1 
         3001.7           624.6 
           3002             608 
         3002.3           590.9 
         3002.6           588.2 
         3002.9           618.7 
         3003.2           696.6 
         3003.5             826 
         3003.8            1000 
         3004.1            1202 
         3004.4            1409 
         3004.7            1600 
           3005            1753 
         3005.3            1853 
         3005.6            1887 
         3005.9            1851 
         3006.2            1754 
         3006.5            1612 
         3006.8            1451 
         3007.1            1299 
         3007.4            1181 
         3007.7            1115 
           3008            1111 
         3008.3            1164 
         3008.6            1266 
         3008.9            1408 
         3009.2            1580 
         3009.5            1771 
         3009.8            1958 
         3010.1            2102 
         3010.4            2168 
         3010.7            2136 
           3011            2022 
         3011.3            1871 
         3011.6            1743 
         3011.9            1680 
         3012.2            1690 
         3012.5            1750 
         3012.8            1820 
         3013.1            1868 
         3013.4            1877 
         3013.7            1851 
           3014            1809 
         3014.3            1769 
         3014.6            1752 
         3014.9            1762 
         3015.2            1797 
         3015.5            1842 
         3015.8            1886 
         3016.1            1916 
         3016.4            1924 
         3016.7            1902 
           3017            1847 
         3017.3            1762 
         3017.6            1659 
         3017.9            1548 
         3018.2            1433 
         3018.5            1314 
         3018.8            1185 
         3019.1            1047 
         3019.4           904.2 
         3019.7           765.9 
           3020           644.7 
         3020.3           554.9 
         3020.6           511.2 
         3020.9           523.6 
         3021.2           594.5 
         3021.5             716 
         3021.8           870.4 
         3022.1            1033 
         3022.4            1177 
         3022.7            1279 
           3023            1322 
         3023.3            1305 
         3023.6            1241 
         3023.9            1155 
         3024.2            1070 
         3024.5            1002 
         3024.8             953 
         3025.1           919.5 
         3025.4           899.4 
         3025.7             898 
           3026           923.9 
         3026.3           980.2 
         3026.6            1060 
         3026.9            1150 
         3027.2            1234 
         3027.5            1306 
         3027.8            1371 
         3028.1            1441 
         3028.4            1528 
         3028.7            1636 
           3029            1753 
         3029.3            1860 
         3029.6            1932 
         3029.9            1957 
         3030.2            1945 
         3030.5            1927 
         3030.8            1953 
         3031.1            2067 
         3031.4            2285 
         3031.7            2576 
           3032            2866 
         3032.3            3063 
         3032.6            3099 
         3032.9            2965 
         3033.2            2706 
         3033.5            2401 
         3033.8            2129 
         3034.1            1942 
         3034.4            1859 
         3034.7            1858 
           3035            1898 
         3035.3            1929 
         3035.6            1914 
         3035.9            1835 
         3036.2            1701 
         3036.5            1536 
         3036.8            1378 
         3037.1            1265 
         3037.4            1222 
         3037.7            1258 
           3038            1356 
         3038.3            1489 
         3038.6            1629 
         3038.9            1761 
         3039.2            1883 
         3039.5            1994 
         3039.8            2089 
         3040.1            2152 
         3040.4            2169 
         3040.7            2138 
           3041            2071 
         3041.3            1998 
         3041.6            1958 
         3041.9            1979 
         3042.2            2068 
         3042.5            2202 
         3042.8            2341 
         3043.1            2448 
         3043.4            2508 
         3043.7            2530 
           3044            2539 
         3044.3            2558 
         3044.6            2600 
         3044.9            2660 
         3045.2            2714 
         3045.5            2728 
         3045.8            2666 
         3046.1            2509 
         3046.4            2261 
         3046.7            1958 
           3047            1651 
         3047.3            1394 
         3047.6            1230 
         3047.9            1177 
         3048.2            1233 
         3048.5            1377 
         3048.8            1573 
         3049.1            1774 
         3049.4            1932 
         3049.7            2010 
           3050            1999 
         3050.3            1920 
         3050.6            1815 
         3050.9            1724 
         3051.2            1670 
         3051.5            1658 
         3051.8            1675 
         3052.1            1701 
         3052.4            1715 
         3052.7            1702 
           3053            1660 
         3053.3            1595 
         3053.6            1526 
         3053.9            1470 
         3054.2            1437 
         3054.5            1427 
         3054.8            1430 
         3055.1            1433 
         3055.4            1425 
         3055.7            1402 
           3056            1366 
         3056.3            1325 
         3056.6            1288 
         3056.9            1265 
         3057.2            1258 
         3057.5            1262 
         3057.8            1265 
         3058.1            1255 
         3058.4            1230 
         3058.7            1206 
           3059            1213 
         3059.3            1282 
         3059.6            1431 
         3059.9            1653 
         3060.2            1919 
         3060.5            2185 
         3060.8            2408 
         3061.1            2559 
         3061.4            2628 
         3061.7            2620 
           3062            2544 
         3062.3            2406 
         3062.6            2214 
         3062.9            1986 
         3063.2            1756 
         3063.5            1566 
         3063.8            1446 
         3064.1            1405 
         3064.4            1421 
         3064.7            1458 
           3065            1482 
         3065.3            1481 
         3065.6            1465 
         3065.9            1458 
         3066.2            1481 
         3066.5            1541 
         3066.8            1632 
         3067.1            1744 
         3067.4            1876 
         3067.7            2036 
           3068            2228 
         3068.3            2439 
         3068.6            2631 
         3068.9            2751 
         3069.2            2758 
         3069.5            2650 
         3069.8            2464 
         3070.1            2266 
         3070.4            2122 
         3070.7            2074 
           3071            2134 
         3071.3            2291 
         3071.6            2519 
         3071.9            2785 
         3072.2            3055 
         3072.5            3288 
         3072.8            3451 
         3073.1            3525 
         3073.4            3515 
         3073.7            3443 
           3074            3335 
         3074.3            3213 
         3074.6            3099 
         3074.9            3028 
         3075.2            3039 
         3075.5            3164 
         3075.8            3398 
         3076.1            3682 
         3076.4            3919 
         3076.7            4022 
           3077            3955 
         3077.3            3748 
         3077.6            3477 
         3077.9            3218 
         3078.2            3023 
         3078.5            2898 
         3078.8            2818 
         3079.1            2744 
         3079.4            2643 
         3079.7            2501 
           3080            2321 
         3080.3            2119 
         3080.6            1920 
         3080.9            1749 
         3081.2            1633 
         3081.5            1589 
         3081.8            1618 
         3082.1            1704 
         3082.4            1810 
         3082.7            1895 
           3083            1933 
         3083.3            1928 
         3083.6            1914 
         3083.9            1935 
         3084.2            2028 
         3084.5            2208 
         3084.8            2460 
         3085.1            2744 
         3085.4            3013 
         3085.7            3231 
           3086            3395 
         3086.3            3532 
         3086.6            3683 
         3086.9            3881 
         3087.2            4131 
         3087.5            4407 
         3087.8            4650 
         3088.1            4781 
         3088.4            4727 
         3088.7            4462 
           3089            4028 
         3089.3            3529 
         3089.6            3078 
         3089.9            2746 
         3090.2            2533 
         3090.5            2387 
         3090.8            2242 
         3091.1            2062 
         3091.4            1847 
         3091.7            1629 
           3092            1453 
         3092.3            1358 
         3092.6            1373 
         3092.9            1502 
         3093.2            1723 
         3093.5            1995 
         3093.8            2267 
         3094.1            2497 
         3094.4            2661 
         3094.7            2752 
           3095            2770 
         3095.3            2728 
         3095.6            2649 
         3095.9            2575 
         3096.2            2571 
         3096.5            2710 
         3096.8            3037 
         3097.1            3535 
         3097.4            4104 
         3097.7            4580 
           3098            4798 
         3098.3            4664 
         3098.6            4198 
         3098.9            3527 
         3099.2            2825 
         3099.5            2239 
         3099.8            1848 
         3100.1            1650 
         3100.4            1596 
         3100.7            1626 
           3101            1707 
         3101.3            2111 
         3101.6            2545 
         3101.9            3169 
         3102.2            3930 
         3102.5            4707 
         3102.8            5359 
         3103.1            5794 
         3103.4            6001 
         3103.7            6043 
           3104            5985 
         3104.3            5846 
         3104.6            5585 
         3104.9            5156 
         3105.2            4566 
         3105.5            3883 
         3105.8            3216 
         3106.1            2666 
         3106.4            2291 
         3106.7            2105 
           3107            2089 
         3107.3            2209 
         3107.6            2422 
         3107.9            2672 
         3108.2            2907 
         3108.5            3081 
         3108.8            3166 
         3109.1            3169 
         3109.4            3134 
         3109.7            3130 
           3110            3217 
         3110.3            3418 
         3110.6            3692 
         3110.9            3946 
         3111.2            4073 
         3111.5            4003 
         3111.8            3740 
         3112.1            3359 
         3112.4            2967 
         3112.7            2659 
           3113            2506 
         3113.3            2536 
         3113.6            2754 
         3113.9            3158 
         3114.2            3736 
         3114.5            4463 
         3114.8            5272 
         3115.1            6045 
         3115.4            6621 
         3115.7            6851 
           3116            6663 
         3116.3            6122 
         3116.6            5404 
         3116.9            4729 
         3117.2            4269 
         3117.5            4086 
         3117.8            4138 
         3118.1            4311 
         3118.4            4489 
         3118.7            4589 
           3119            4590 
         3119.3            4530 
         3119.6            4481 
         3119.9            4503 
         3120.2            4601 
         3120.5            4717 
         3120.8            4758 
         3121.1            4669 
         3121.4            4483 
         3121.7            4329 
           3122            4365 
         3122.3            4696 
         3122.6            5302 
         3122.9            6031 
         3123.2            6664 
         3123.5            7025 
         3123.8            7063 
         3124.1            6876 
         3124.4            6638 
         3124.7            6505 
           3125            6525 
         3125.3            6638 
         3125.6            6727 
         3125.9            6708 
         3126.2            6564 
         3126.5            6335 
         3126.8            6066 
         3127.1            5765 
         3127.4            5415 
         3127.7            5002 
           3128            4539 
         3128.3            4068 
         3128.6            3646 
         3128.9            3323 
         3129.2            3118 
         3129.5            3025 
         3129.8            3029 
         3130.1            3133 
         3130.4            3363 
         3130.7            3745 
           3131            4258 
         3131.3            4815 
         3131.6            5281 
         3131.9            5524 
         3132.2            5480 
         3132.5            5183 
         3132.8            4746 
         3133.1            4315 
         3133.4            4027 
         3133.7            3974 
           3134            4171 
         3134.3            4540 
         3134.6            4931 
         3134.9            5176 
         3135.2            5173 
         3135.5            4937 
         3135.8            4592 
         3136.1            4296 
         3136.4            4175 
         3136.7            4282 
           3137            4607 
         3137.3            5089 
         3137.6            5642 
         3137.9            6167 
         3138.2            6575 
         3138.5            6813 
         3138.8            6873 
         3139.1            6808 
         3139.4            6711 
         3139.7            6696 
           3140            6845 
         3140.3            7163 
         3140.6            7573 
         3140.9            7961 
         3141.2            8248 
         3141.5            8420 
         3141.8            8500 
         3142.1            8474 
         3142.4            8269 
         3142.7            7813 
           3143            7110 
         3143.3            6273 
         3143.6            5459 
         3143.9            4790 
         3144.2            4307 
         3144.5            3975 
         3144.8            3743 
         3145.1            3581 
         3145.4            3483 
         3145.7            3460 
           3146            3525 
         3146.3            3684 
         3146.6            3936 
         3146.9            4278 
         3147.2            4722 
         3147.5            5307 
         3147.8            6100 
         3148.1            7141 
         3148.4            8394 
         3148.7            9716 
           3149           10900 
         3149.3           11770 
         3149.6           12200 
         3149.9           12150 
         3150.2           11610 
         3150.5           10650 
         3150.8            9386 
         3151.1            7993 
         3151.4            6668 
         3151.7            5553 
           3152            4698 
         3152.3            4079 
         3152.6            3642 
         3152.9            3353 
         3153.2            3215 
         3153.5            3265 
         3153.8            3543 
         3154.1            4045 
         3154.4            4689 
         3154.7            5322 
           3155            5784 
         3155.3            5979 
         3155.6            5921 
         3155.9            5704 
         3156.2            5440 
         3156.5            5205 
         3156.8            5031 
         3157.1            4926 
         3157.4            4896 
         3157.7            4968 
           3158            5174 
         3158.3            5532 
         3158.6            6009 
         3158.9            6504 
         3159.2            6867 
         3159.5            6959 
         3159.8            6731 
         3160.1            6257 
         3160.4            5707 
         3160.7            5267 
           3161            5074 
         3161.3            5217 
         3161.6            5759 
         3161.9            6743 
         3162.2            8132 
         3162.5            9758 
         3162.8           11290 
         3163.1           12390 
         3163.4           12780 
         3163.7           12480 
           3164           11650 
         3164.3           10570 
         3164.6            9458 
         3164.9            8440 
         3165.2            7611 
         3165.5            7050 
         3165.8            6837 
         3166.1            7030 
         3166.4            7642 
         3166.7            8597 
           3167            9722 
         3167.3           10750 
         3167.6           11420 
         3167.9           11540 
         3168.2           11150 
         3168.5           10460 
         3168.8            9786 
         3169.1            9341 
         3169.4            9188 
         3169.7            9241 
           3170            9372 
         3170.3            9517 
         3170.6            9725 
         3170.9           10120 
         3171.2           10810 
         3171.5           11760 
         3171.8           12780 
         3172.1           13630 
         3172.4           14200 
         3172.7           14620 
           3173           15240 
         3173.3           16400 
         3173.6           18160 
         3173.9           20200 
         3174.2           22000 
         3174.5           23130 
         3174.8           23560 
         3175.1           23440 
         3175.4           22950 
         3175.7           22130 
           3176           20900 
         3176.3           19220 
         3176.6           17260 
         3176.9           15300 
         3177.2           13630 
         3177.5           12450 
         3177.8           11770 
         3178.1           11390 
