# Granada HRES Library
# atmosphere = Spectrum  (atmosphere model used)
# feh = 0  (value for [Fe/H] for the model.)
# logg = 0 log(cm/s2) (value for Log(G) for the model.)
# teff = 5250 K (value for the effective temperature for the model. Temperatures are given in K)
#
# column 1: WAVELENGTH (ANGSTROM), Wavelength in Angstrom
# column 2: FLUX (ERG/CM2/S/A), Flux in erg/cm2/s/A
         3000.2          108800 
         3000.5          107500 
         3000.8          107400 
         3001.1          108300 
         3001.4          109900 
         3001.7          112100 
           3002          115500 
         3002.3          121100 
         3002.6          130400 
         3002.9          145300 
         3003.2          167300 
         3003.5          196800 
         3003.8          233100 
         3004.1          274300 
         3004.4          316900 
         3004.7          357000 
           3005          390300 
         3005.3          413100 
         3005.6          422500 
         3005.9          417500 
         3006.2          398800 
         3006.5          369000 
         3006.8          332400 
         3007.1          294100 
         3007.4          259300 
         3007.7          232300 
           3008          216000 
         3008.3          211900 
         3008.6          219700 
         3008.9          238200 
         3009.2          265000 
         3009.5          296800 
         3009.8          329800 
         3010.1          360000 
         3010.4          383900 
         3010.7          399000 
           3011          405000 
         3011.3          403000 
         3011.6          396500 
         3011.9          388700 
         3012.2          382500 
         3012.5          379100 
         3012.8          378500 
         3013.1          379800 
         3013.4          381700 
         3013.7          383200 
           3014          383500 
         3014.3          382000 
         3014.6          378500 
         3014.9          373000 
         3015.2          366100 
         3015.5          358100 
         3015.8          349500 
         3016.1          340000 
         3016.4          328800 
         3016.7          315200 
           3017          298700 
         3017.3          279500 
         3017.6          258100 
         3017.9          235300 
         3018.2          211500 
         3018.5          187200 
         3018.8          162500 
         3019.1          138200 
         3019.4          115400 
         3019.7           95350 
           3020           79920 
         3020.3           70890 
         3020.6           70020 
         3020.9           78490 
         3021.2           96560 
         3021.5          123300 
         3021.8          156400 
         3022.1          192500 
         3022.4          227700 
         3022.7          258700 
           3023          282500 
         3023.3          298100 
         3023.6          305600 
         3023.9          305900 
         3024.2          300000 
         3024.5          289300 
         3024.8          275700 
         3025.1          262000 
         3025.4          252400 
         3025.7          251100 
           3026          261900 
         3026.3          285800 
         3026.6          320900 
         3026.9          362800 
         3027.2          405800 
         3027.5          444100 
         3027.8          472900 
         3028.1          489500 
         3028.4          492800 
         3028.7          484300 
           3029          466600 
         3029.3          443400 
         3029.6          418200 
         3029.9          394300 
         3030.2          373600 
         3030.5          357600 
         3030.8          347400 
         3031.1          344000 
         3031.4          348100 
         3031.7          359200 
           3032          375600 
         3032.3          394200 
         3032.6          412000 
         3032.9          427100 
         3033.2          438500 
         3033.5          447400 
         3033.8          455300 
         3034.1          463400 
         3034.4          471700 
         3034.7          478700 
           3035          480800 
         3035.3          474200 
         3035.6          455700 
         3035.9          424200 
         3036.2          381900 
         3036.5          333700 
         3036.8          286500 
         3037.1          247200 
         3037.4          221300 
         3037.7          211900 
           3038          218400 
         3038.3          238100 
         3038.6          266300 
         3038.9          298000 
         3039.2          328300 
         3039.5          353600 
         3039.8          371500 
         3040.1          380700 
         3040.4          381500 
         3040.7          375000 
           3041          363200 
         3041.3          349000 
         3041.6          335800 
         3041.9          326900 
         3042.2          324300 
         3042.5          328700 
         3042.8          338500 
         3043.1          350800 
         3043.4          362200 
         3043.7          370500 
           3044          374800 
         3044.3          375700 
         3044.6          374500 
         3044.9          372200 
         3045.2          368400 
         3045.5          361800 
         3045.8          350100 
         3046.1          331900 
         3046.4          307500 
         3046.7          279500 
           3047          252600 
         3047.3          232600 
         3047.6          224000 
         3047.9          229200 
         3048.2          247400 
         3048.5          275000 
         3048.8          306900 
         3049.1          337600 
         3049.4          363400 
         3049.7          382900 
           3050          398000 
         3050.3          412700 
         3050.6          431100 
         3050.9          455400 
         3051.2          484900 
         3051.5          515400 
         3051.8          540600 
         3052.1          554400 
         3052.4          553000 
         3052.7          535800 
           3053          506200 
         3053.3          470200 
         3053.6          434600 
         3053.9          405700 
         3054.2          387400 
         3054.5          380600 
         3054.8          383400 
         3055.1          391200 
         3055.4          398200 
         3055.7          398700 
           3056          388800 
         3056.3          367500 
         3056.6          336600 
         3056.9          300400 
         3057.2          263800 
         3057.5          231300 
         3057.8          206100 
         3058.1          189700 
         3058.4          182800 
         3058.7          186000 
           3059          200500 
         3059.3          226300 
         3059.6          263000 
         3059.9          307800 
         3060.2          356400 
         3060.5          403200 
         3060.8          443000 
         3061.1          471800 
         3061.4          487900 
         3061.7          490800 
           3062          482500 
         3062.3          465300 
         3062.6          442300 
         3062.9          416900 
         3063.2          392500 
         3063.5          372100 
         3063.8          356900 
         3064.1          346800 
         3064.4          339700 
         3064.7          332700 
           3065          322900 
         3065.3          308600 
         3065.6          290400 
         3065.9          270600 
         3066.2          253000 
         3066.5          242000 
         3066.8          241100 
         3067.1          252300 
         3067.4          276200 
         3067.7          310800 
           3068          353200 
         3068.3          398800 
         3068.6          442300 
         3068.9          479000 
         3069.2          504500 
         3069.5          516600 
         3069.8          515300 
         3070.1          502300 
         3070.4          480400 
         3070.7          452500 
           3071          421200 
         3071.3          388700 
         3071.6          357400 
         3071.9          330400 
         3072.2          310700 
         3072.5          301200 
         3072.8          302300 
         3073.1          312000 
         3073.4          325800 
         3073.7          338100 
           3074          344700 
         3074.3          343900 
         3074.6          337700 
         3074.9          331600 
         3075.2          331100 
         3075.5          340500 
         3075.8          359900 
         3076.1          385400 
         3076.4          410100 
         3076.7          427000 
           3077          430800 
         3077.3          420500 
         3077.6          399500 
         3077.9          373800 
         3078.2          351000 
         3078.5          337800 
         3078.8          337900 
         3079.1          351200 
         3079.4          374400 
         3079.7          401600 
           3080          426600 
         3080.3          444400 
         3080.6          452700 
         3080.9          451400 
         3081.2          442700 
         3081.5          430100 
         3081.8          417500 
         3082.1          408500 
         3082.4          405900 
         3082.7          411200 
           3083          425300 
         3083.3          448600 
         3083.6          480000 
         3083.9          517500 
         3084.2          557900 
         3084.5          596800 
         3084.8          629000 
         3085.1          649800 
         3085.4          655200 
         3085.7          642800 
           3086          612200 
         3086.3          566100 
         3086.6          509300 
         3086.9          448600 
         3087.2          391100 
         3087.5          342900 
         3087.8          308300 
         3088.1          288800 
         3088.4          283500 
         3088.7          289300 
           3089          302600 
         3089.3          319800 
         3089.6          338400 
         3089.9          356900 
         3090.2          374100 
         3090.5          389300 
         3090.8          401600 
         3091.1          410200 
         3091.4          413600 
         3091.7          410600 
           3092          400900 
         3092.3          386100 
         3092.6          369700 
         3092.9          356700 
         3093.2          351900 
         3093.5          357200 
         3093.8          371700 
         3094.1          391600 
         3094.4          411300 
         3094.7          425600 
           3095          431100 
         3095.3          426900 
         3095.6          414500 
         3095.9          398000 
         3096.2          382100 
         3096.5          370900 
         3096.8          366700 
         3097.1          369200 
         3097.4          375300 
         3097.7          380200 
           3098          378300 
         3098.3          365900 
         3098.6          342100 
         3098.9          309100 
         3099.2          271400 
         3099.5          234300 
         3099.8          202700 
         3100.1          179700 
         3100.4          166900 
         3100.7          164900 
           3101          173600 
         3101.3          192200 
         3101.6          219800 
         3101.9          255300 
         3102.2          295900 
         3102.5          338000 
         3102.8          377100 
         3103.1          408900 
         3103.4          430400 
         3103.7          440400 
           3104          439400 
         3104.3          430200 
         3104.6          416600 
         3104.9          403300 
         3105.2          394600 
         3105.5          394400 
         3105.8          404500 
         3106.1          424800 
         3106.4          452800 
         3106.7          484900 
           3107          517200 
         3107.3          545800 
         3107.6          568200 
         3107.9          582500 
         3108.2          587900 
         3108.5          583900 
         3108.8          571100 
         3109.1          550900 
         3109.4          526200 
         3109.7          501700 
           3110          482400 
         3110.3          473200 
         3110.6          476600 
         3110.9          492600 
         3111.2          518100 
         3111.5          547900 
         3111.8          576200 
         3112.1          597800 
         3112.4          609700 
         3112.7          610400 
           3113          600900 
         3113.3          583900 
         3113.6          563200 
         3113.9          542900 
         3114.2          526200 
         3114.5          515300 
         3114.8          510400 
         3115.1          510100 
         3115.4          511800 
         3115.7          512300 
           3116          508300 
         3116.3          497800 
         3116.6          480300 
         3116.9          456800 
         3117.2          429400 
         3117.5          401100 
         3117.8          375000 
         3118.1          353300 
         3118.4          337400 
         3118.7          327000 
           3119          321300 
         3119.3          319700 
         3119.6          321700 
         3119.9          327500 
         3120.2          336900 
         3120.5          349300 
         3120.8          363300 
         3121.1          377600 
         3121.4          390900 
         3121.7          403400 
           3122          415800 
         3122.3          429200 
         3122.6          443800 
         3122.9          458700 
         3123.2          471600 
         3123.5          479500 
         3123.8          479500 
         3124.1          470300 
         3124.4          453500 
         3124.7          433500 
           3125          416900 
         3125.3          410300 
         3125.6          418300 
         3125.9          441800 
         3126.2          477300 
         3126.5          517900 
         3126.8          555000 
         3127.1          581400 
         3127.4          592400 
         3127.7          587500 
           3128          569400 
         3128.3          543000 
         3128.6          513500 
         3128.9          484800 
         3129.2          458600 
         3129.5          435100 
         3129.8          413600 
         3130.1          394200 
         3130.4          377400 
         3130.7          363900 
           3131          354200 
         3131.3          348100 
         3131.6          344200 
         3131.9          341300 
         3132.2          338900 
         3132.5          336900 
         3132.8          335800 
         3133.1          336700 
         3133.4          341300 
         3133.7          351200 
           3134          367400 
         3134.3          389600 
         3134.6          416600 
         3134.9          445100 
         3135.2          471700 
         3135.5          493600 
         3135.8          509600 
         3136.1          520500 
         3136.4          528800 
         3136.7          537300 
           3137          547600 
         3137.3          559500 
         3137.6          571200 
         3137.9          580700 
         3138.2          586400 
         3138.5          587900 
         3138.8          586100 
         3139.1          583500 
         3139.4          582300 
         3139.7          584800 
           3140          592300 
         3140.3          603400 
         3140.6          615000 
         3140.9          622300 
         3141.2          620800 
         3141.5          607200 
         3141.8          580700 
         3142.1          542900 
         3142.4          497300 
         3142.7          447700 
           3143          398100 
         3143.3          351900 
         3143.6          312100 
         3143.9          281300 
         3144.2          261500 
         3144.5          254000 
         3144.8          258900 
         3145.1          274700 
         3145.4          298400 
         3145.7          325700 
           3146          352700 
         3146.3          376300 
         3146.6          395800 
         3146.9          412500 
         3147.2          429000 
         3147.5          448000 
         3147.8          471100 
         3148.1          498500 
         3148.4          528400 
         3148.7          558000 
           3149          585500 
         3149.3          609500 
         3149.6          629900 
         3149.9          646500 
         3150.2          659000 
         3150.5          666200 
         3150.8          667100 
         3151.1          662000 
         3151.4          652400 
         3151.7          641200 
           3152          631300 
         3152.3          624300 
         3152.6          620100 
         3152.9          616400 
         3153.2          610100 
         3153.5          598600 
         3153.8          581200 
         3154.1          559600 
         3154.4          536700 
         3154.7          516300 
           3155          501200 
         3155.3          492300 
         3155.6          489300 
         3155.9          489600 
         3156.2          489800 
         3156.5          486200 
         3156.8          476000 
         3157.1          458600 
         3157.4          434900 
         3157.7          408100 
           3158          382000 
         3158.3          360200 
         3158.6          345300 
         3158.9          338100 
         3159.2          336700 
         3159.5          337400 
         3159.8          335600 
         3160.1          327900 
         3160.4          313200 
         3160.7          293300 
           3161          272700 
         3161.3          257000 
         3161.6          251500 
         3161.9          259800 
         3162.2          283200 
         3162.5          319600 
         3162.8          364100 
         3163.1          410100 
         3163.4          450500 
         3163.7          479700 
           3164          495200 
         3164.3          497800 
         3164.6          491700 
         3164.9          482100 
         3165.2          474100 
         3165.5          470700 
         3165.8          472400 
         3166.1          477700 
         3166.4          483300 
         3166.7          485400 
           3167          480900 
         3167.3          468400 
         3167.6          449700 
         3167.9          429000 
         3168.2          412300 
         3168.5          405300 
         3168.8          411900 
         3169.1          432400 
         3169.4          464200 
         3169.7          502900 
           3170          543200 
         3170.3          581400 
         3170.6          615200 
         3170.9          644300 
         3171.2          669300 
         3171.5          691000 
         3171.8          709300 
         3172.1          723200 
         3172.4          730900 
         3172.7          730800 
           3173          722500 
         3173.3          707200 
         3173.6          687700 
         3173.9          667400 
         3174.2          650100 
         3174.5          639100 
         3174.8          636800 
         3175.1          643800 
         3175.4          658400 
         3175.7          676500 
           3176          692600 
         3176.3          700700 
         3176.6          696300 
         3176.9          677700 
         3177.2          645500 
         3177.5          603300 
         3177.8          555100 
         3178.1          505700 
