# Granada HRES Library
# atmosphere = Phoenix  (atmosphere model used)
# feh = -10  (value for [Fe/H] for the model.)
# logg = 3.5 log(cm/s2) (value for Log(G) for the model.)
# teff = 3500 K (value for the effective temperature for the model. Temperatures are given in K)
#
# column 1: WAVELENGTH (ANGSTROM), Wavelength in Angstrom
# column 2: FLUX (ERG/CM2/S/A), Flux in erg/cm2/s/A
         3000.2           581.9 
         3000.5           531.7 
         3000.8           497.7 
         3001.1           478.4 
         3001.4           467.8 
         3001.7           458.4 
           3002           447.4 
         3002.3             440 
         3002.6           449.3 
         3002.9           490.8 
         3003.2           576.1 
         3003.5           706.7 
         3003.8           873.8 
         3004.1            1060 
         3004.4            1241 
         3004.7            1396 
           3005            1509 
         3005.3            1568 
         3005.6            1567 
         3005.9            1505 
         3006.2            1389 
         3006.5            1236 
         3006.8            1071 
         3007.1           918.3 
         3007.4           802.1 
         3007.7           734.9 
           3008           720.8 
         3008.3           757.4 
         3008.6           840.4 
         3008.9           967.2 
         3009.2            1136 
         3009.5            1338 
         3009.8            1554 
         3010.1            1748 
         3010.4            1882 
         3010.7            1932 
           3011            1899 
         3011.3            1813 
         3011.6            1715 
         3011.9            1644 
         3012.2            1613 
         3012.5            1613 
         3012.8            1622 
         3013.1            1621 
         3013.4            1599 
         3013.7            1559 
           3014            1506 
         3014.3            1449 
         3014.6            1396 
         3014.9            1355 
         3015.2            1330 
         3015.5            1320 
         3015.8            1319 
         3016.1            1318 
         3016.4            1308 
         3016.7            1279 
           3017            1230 
         3017.3            1167 
         3017.6            1099 
         3017.9            1033 
         3018.2           966.2 
         3018.5           896.9 
         3018.8           818.8 
         3019.1           730.5 
         3019.4           634.9 
         3019.7           538.6 
           3020           451.3 
         3020.3           384.5 
         3020.6           350.1 
         3020.9           357.5 
         3021.2             410 
         3021.5           503.1 
         3021.8           623.8 
         3022.1           752.7 
         3022.4           867.6 
         3022.7           948.8 
           3023           984.1 
         3023.3           973.2 
         3023.6           928.9 
         3023.9           870.5 
         3024.2           816.5 
         3024.5           775.5 
         3024.8           746.8 
         3025.1           726.8 
         3025.4             717 
         3025.7           726.7 
           3026           766.3 
         3026.3           838.4 
         3026.6           932.9 
         3026.9            1032 
         3027.2            1118 
         3027.5            1187 
         3027.8            1250 
         3028.1            1324 
         3028.4            1421 
         3028.7            1542 
           3029            1669 
         3029.3            1776 
         3029.6            1841 
         3029.9            1854 
         3030.2            1823 
         3030.5            1772 
         3030.8            1734 
         3031.1            1740 
         3031.4            1806 
         3031.7            1924 
           3032            2057 
         3032.3            2155 
         3032.6            2172 
         3032.9            2092 
         3033.2            1936 
         3033.5            1754 
         3033.8            1604 
         3034.1            1525 
         3034.4            1528 
         3034.7            1591 
           3035            1669 
         3035.3            1714 
         3035.6            1697 
         3035.9            1604 
         3036.2            1452 
         3036.5            1272 
         3036.8            1103 
         3037.1           983.5 
         3037.4           939.3 
         3037.7           978.3 
           3038            1088 
         3038.3            1240 
         3038.6            1402 
         3038.9            1544 
         3039.2            1649 
         3039.5            1704 
         3039.8            1706 
         3040.1            1657 
         3040.4            1568 
         3040.7            1456 
           3041            1347 
         3041.3            1270 
         3041.6            1247 
         3041.9            1292 
         3042.2            1397 
         3042.5            1538 
         3042.8            1683 
         3043.1            1801 
         3043.4            1878 
         3043.7            1915 
           3044            1925 
         3044.3            1928 
         3044.6            1936 
         3044.9            1953 
         3045.2            1970 
         3045.5            1968 
         3045.8            1921 
         3046.1            1812 
         3046.4            1641 
         3046.7            1428 
           3047            1209 
         3047.3            1024 
         3047.6           907.9 
         3047.9           877.2 
         3048.2           933.1 
         3048.5            1060 
         3048.8            1228 
         3049.1            1395 
         3049.4            1520 
         3049.7            1576 
           3050            1561 
         3050.3            1502 
         3050.6            1439 
         3050.9            1410 
         3051.2            1429 
         3051.5            1492 
         3051.8            1577 
         3052.1            1654 
         3052.4            1696 
         3052.7            1685 
           3053            1618 
         3053.3            1511 
         3053.6            1392 
         3053.9            1296 
         3054.2            1246 
         3054.5            1252 
         3054.8            1300 
         3055.1            1364 
         3055.4            1415 
         3055.7            1430 
           3056            1402 
         3056.3            1336 
         3056.6            1246 
         3056.9            1150 
         3057.2            1062 
         3057.5           989.8 
         3057.8           933.8 
         3058.1           891.7 
         3058.4           863.6 
         3058.7           858.2 
           3059           890.4 
         3059.3           974.6 
         3059.6            1116 
         3059.9            1303 
         3060.2            1514 
         3060.5            1720 
         3060.8            1893 
         3061.1            2013 
         3061.4            2073 
         3061.7            2071 
           3062            2007 
         3062.3            1879 
         3062.6            1688 
         3062.9            1446 
         3063.2            1180 
         3063.5           926.8 
         3063.8           721.2 
         3064.1           584.3 
         3064.4           517.4 
         3064.7           504.9 
           3065           523.1 
         3065.3             550 
         3065.6           571.8 
         3065.9           584.8 
         3066.2           592.1 
         3066.5           598.2 
         3066.8           605.6 
         3067.1             615 
         3067.4           627.6 
         3067.7           646.6 
           3068           675.3 
         3068.3           713.3 
         3068.6           754.5 
         3068.9           789.3 
         3069.2           809.5 
         3069.5           815.9 
         3069.8           820.9 
         3070.1           844.9 
         3070.4           906.7 
         3070.7            1015 
           3071            1162 
         3071.3            1335 
         3071.6            1517 
         3071.9            1699 
         3072.2            1876 
         3072.5            2037 
         3072.8            2163 
         3073.1            2236 
         3073.4            2251 
         3073.7            2222 
           3074            2169 
         3074.3            2114 
         3074.6            2068 
         3074.9            2041 
         3075.2            2046 
         3075.5            2098 
         3075.8            2201 
         3076.1            2338 
         3076.4            2471 
         3076.7            2559 
           3077            2578 
         3077.3            2526 
         3077.6            2424 
         3077.9            2304 
         3078.2            2191 
         3078.5            2093 
         3078.8            2002 
         3079.1            1898 
         3079.4            1765 
         3079.7            1602 
           3080            1421 
         3080.3            1238 
         3080.6            1067 
         3080.9           914.8 
         3081.2           788.3 
         3081.5           692.9 
         3081.8           633.3 
         3082.1           609.6 
         3082.4           615.8 
         3082.7           642.9 
           3083           684.3 
         3083.3           739.1 
         3083.6           809.6 
         3083.9           895.7 
         3084.2           992.1 
         3084.5            1091 
         3084.8            1185 
         3085.1            1271 
         3085.4            1343 
         3085.7            1395 
           3086            1426 
         3086.3            1448 
         3086.6            1485 
         3086.9            1568 
         3087.2            1713 
         3087.5            1914 
         3087.8            2129 
         3088.1            2299 
         3088.4            2366 
         3088.7            2296 
           3089            2093 
         3089.3            1800 
         3089.6            1478 
         3089.9            1181 
         3090.2           946.5 
         3090.5           781.8 
         3090.8           676.9 
         3091.1           612.3 
         3091.4           568.8 
         3091.7           534.2 
           3092           505.7 
         3092.3           489.9 
         3092.6           498.1 
         3092.9           539.7 
         3093.2           614.8 
         3093.5           712.2 
         3093.8           812.8 
         3094.1           896.8 
         3094.4           949.8 
         3094.7           966.7 
           3095           951.1 
         3095.3           914.4 
         3095.6           875.4 
         3095.9           859.2 
         3096.2           891.8 
         3096.5           990.1 
         3096.8            1150 
         3097.1            1341 
         3097.4            1511 
         3097.7            1606 
           3098            1594 
         3098.3            1476 
         3098.6            1287 
         3098.9            1080 
         3099.2           906.1 
         3099.5           797.4 
         3099.8           761.1 
         3100.1           781.1 
         3100.4             828 
         3100.7           872.9 
           3101           900.2 
         3101.3             932 
         3101.6           982.4 
         3101.9            1082 
         3102.2            1234 
         3102.5            1428 
         3102.8            1640 
         3103.1            1845 
         3103.4            2013 
         3103.7            2121 
           3104            2144 
         3104.3            2074 
         3104.6            1914 
         3104.9            1694 
         3105.2            1453 
         3105.5            1238 
         3105.8            1086 
         3106.1            1013 
         3106.4            1020 
         3106.7            1092 
           3107            1205 
         3107.3            1335 
         3107.6            1451 
         3107.9            1527 
         3108.2            1555 
         3108.5            1550 
         3108.8            1544 
         3109.1            1575 
         3109.4            1671 
         3109.7            1832 
           3110            2034 
         3110.3            2238 
         3110.6            2393 
         3110.9            2468 
         3111.2            2447 
         3111.5            2347 
         3111.8            2205 
         3112.1            2063 
         3112.4            1961 
         3112.7            1925 
           3113            1972 
         3113.3            2114 
         3113.6            2363 
         3113.9            2716 
         3114.2            3148 
         3114.5            3610 
         3114.8            4021 
         3115.1            4291 
         3115.4            4348 
         3115.7            4170 
           3116            3792 
         3116.3            3309 
         3116.6            2846 
         3116.9            2522 
         3117.2            2413 
         3117.5            2526 
         3117.8            2808 
         3118.1            3161 
         3118.4            3487 
         3118.7            3719 
           3119            3843 
         3119.3            3895 
         3119.6            3928 
         3119.9            3975 
         3120.2            4016 
         3120.5            3984 
         3120.8            3805 
         3121.1            3448 
         3121.4            2952 
         3121.7            2422 
           3122            1976 
         3122.3            1698 
         3122.6            1611 
         3122.9            1674 
         3123.2            1818 
         3123.5            1977 
         3123.8            2111 
         3124.1            2213 
         3124.4            2299 
         3124.7            2390 
           3125            2495 
         3125.3            2610 
         3125.6            2726 
         3125.9            2835 
         3126.2            2935 
         3126.5            3011 
         3126.8            3037 
         3127.1            2979 
         3127.4            2823 
         3127.7            2591 
           3128            2330 
         3128.3            2092 
         3128.6            1908 
         3128.9            1792 
         3129.2            1746 
         3129.5            1773 
         3129.8            1881 
         3130.1            2084 
         3130.4            2383 
         3130.7            2758 
           3131            3153 
         3131.3            3484 
         3131.6            3664 
         3131.9            3641 
         3132.2            3425 
         3132.5            3082 
         3132.8            2700 
         3133.1            2366 
         3133.4            2135 
         3133.7            2039 
           3134            2089 
         3134.3            2258 
         3134.6            2484 
         3134.9            2680 
         3135.2            2768 
         3135.5            2723 
         3135.8            2577 
         3136.1            2411 
         3136.4            2315 
         3136.7            2358 
           3137            2564 
         3137.3            2906 
         3137.6            3313 
         3137.9            3692 
         3138.2            3953 
         3138.5            4047 
         3138.8            3977 
         3139.1            3794 
         3139.4            3564 
         3139.7            3349 
           3140            3191 
         3140.3            3100 
         3140.6            3065 
         3140.9            3059 
         3141.2            3062 
         3141.5            3068 
         3141.8            3076 
         3142.1            3080 
         3142.4            3058 
         3142.7            2989 
           3143            2881 
         3143.3            2770 
         3143.6            2696 
         3143.9            2679 
         3144.2            2704 
         3144.5            2733 
         3144.8            2735 
         3145.1            2692 
         3145.4            2603 
         3145.7            2468 
           3146            2301 
         3146.3            2133 
         3146.6            2025 
         3146.9            2047 
         3147.2            2249 
         3147.5            2640 
         3147.8            3169 
         3148.1            3731 
         3148.4            4193 
         3148.7            4437 
           3149            4398 
         3149.3            4100 
         3149.6            3637 
         3149.9            3132 
         3150.2            2690 
         3150.5            2367 
         3150.8            2174 
         3151.1            2097 
         3151.4            2111 
         3151.7            2193 
           3152            2320 
         3152.3            2460 
         3152.6            2579 
         3152.9            2652 
         3153.2            2670 
         3153.5            2658 
         3153.8            2661 
         3154.1            2723 
         3154.4            2854 
         3154.7            3026 
           3155            3188 
         3155.3            3303 
         3155.6            3374 
         3155.9            3447 
         3156.2            3586 
         3156.5            3838 
         3156.8            4220 
         3157.1            4705 
         3157.4            5236 
         3157.7            5750 
           3158            6196 
         3158.3            6542 
         3158.6            6767 
         3158.9            6840 
         3159.2            6724 
         3159.5            6401 
         3159.8            5905 
         3160.1            5342 
         3160.4            4861 
         3160.7            4587 
           3161            4576 
         3161.3            4796 
         3161.6            5164 
         3161.9            5593 
         3162.2            6014 
         3162.5            6369 
         3162.8            6609 
         3163.1            6702 
         3163.4            6659 
         3163.7            6538 
           3164            6421 
         3164.3            6370 
         3164.6            6409 
         3164.9            6544 
         3165.2            6786 
         3165.5            7178 
         3165.8            7760 
         3166.1            8542 
         3166.4            9454 
         3166.7           10340 
           3167           11020 
         3167.3           11300 
         3167.6           11140 
         3167.9           10640 
         3168.2           10040 
         3168.5            9641 
         3168.8            9644 
         3169.1           10060 
         3169.4           10720 
         3169.7           11290 
           3170           11510 
         3170.3           11280 
         3170.6           10700 
         3170.9           10010 
         3171.2            9436 
         3171.5            9094 
         3171.8            8955 
         3172.1            8889 
         3172.4            8776 
         3172.7            8593 
           3173            8445 
         3173.3            8500 
         3173.6            8883 
         3173.9            9598 
         3174.2           10530 
         3174.5           11500 
         3174.8           12360 
         3175.1           13020 
         3175.4           13430 
         3175.7           13550 
           3176           13370 
         3176.3           12870 
         3176.6           12140 
         3176.9           11310 
         3177.2           10570 
         3177.5           10110 
         3177.8            9982 
         3178.1           10110 
