# Granada HRES Library
# atmosphere = Phoenix  (atmosphere model used)
# feh = -5  (value for [Fe/H] for the model.)
# logg = -0.5 log(cm/s2) (value for Log(G) for the model.)
# teff = 4500 K (value for the effective temperature for the model. Temperatures are given in K)
#
# column 1: WAVELENGTH (ANGSTROM), Wavelength in Angstrom
# column 2: FLUX (ERG/CM2/S/A), Flux in erg/cm2/s/A
         3000.2           252.3 
         3000.5           215.2 
         3000.8           189.6 
         3001.1           175.7 
         3001.4             171 
         3001.7             172 
           3002           177.8 
         3002.3           193.2 
         3002.6           229.1 
         3002.9           300.4 
         3003.2           421.2 
         3003.5           599.5 
         3003.8           832.7 
         3004.1            1105 
         3004.4            1389 
         3004.7            1651 
           3005            1854 
         3005.3            1969 
         3005.6            1977 
         3005.9            1877 
         3006.2            1682 
         3006.5            1423 
         3006.8            1140 
         3007.1           875.2 
         3007.4           661.1 
         3007.7           520.4 
           3008           461.2 
         3008.3           481.7 
         3008.6           573.9 
         3008.9           727.9 
         3009.2           931.1 
         3009.5            1165 
         3009.8            1398 
         3010.1            1594 
         3010.4            1717 
         3010.7            1751 
           3011            1713 
         3011.3            1646 
         3011.6            1608 
         3011.9            1639 
         3012.2            1746 
         3012.5            1897 
         3012.8            2039 
         3013.1            2125 
         3013.4            2133 
         3013.7            2070 
           3014            1964 
         3014.3            1850 
         3014.6            1746 
         3014.9            1656 
         3015.2            1574 
         3015.5            1487 
         3015.8            1393 
         3016.1            1291 
         3016.4            1183 
         3016.7            1070 
           3017           951.4 
         3017.3           830.3 
         3017.6           713.6 
         3017.9           608.1 
         3018.2           515.4 
         3018.5           432.8 
         3018.8           356.3 
         3019.1           284.3 
         3019.4           218.3 
         3019.7           161.7 
           3020           117.9 
         3020.3           89.39 
         3020.6           78.55 
         3020.9           87.03 
         3021.2           115.8 
         3021.5           163.9 
         3021.8           227.7 
         3022.1           299.4 
         3022.4           368.6 
         3022.7           424.3 
           3023           458.4 
         3023.3           469.1 
         3023.6           461.9 
         3023.9             446 
         3024.2           429.5 
         3024.5           415.3 
         3024.8             403 
         3025.1           394.4 
         3025.4             399 
         3025.7           434.3 
           3026           520.9 
         3026.3           675.6 
         3026.6           905.3 
         3026.9            1206 
         3027.2            1566 
         3027.5            1963 
         3027.8            2366 
         3028.1            2737 
         3028.4            3037 
         3028.7            3233 
           3029            3304 
         3029.3            3244 
         3029.6            3060 
         3029.9            2776 
         3030.2            2438 
         3030.5            2122 
         3030.8            1921 
         3031.1            1919 
         3031.4            2160 
         3031.7            2620 
           3032            3204 
         3032.3            3775 
         3032.6            4197 
         3032.9            4378 
         3033.2            4301 
         3033.5            4018 
         3033.8            3624 
         3034.1            3220 
         3034.4            2873 
         3034.7            2604 
           3035            2385 
         3035.3            2171 
         3035.6            1925 
         3035.9            1637 
         3036.2            1326 
         3036.5            1022 
         3036.8           762.2 
         3037.1           571.8 
         3037.4           465.1 
         3037.7           444.9 
           3038           506.1 
         3038.3           638.7 
         3038.6           829.6 
         3038.9            1061 
         3039.2            1307 
         3039.5            1537 
         3039.8            1719 
         3040.1            1835 
         3040.4            1875 
         3040.7            1845 
           3041            1758 
         3041.3            1638 
         3041.6            1517 
         3041.9            1434 
         3042.2            1415 
         3042.5            1470 
         3042.8            1589 
         3043.1            1756 
         3043.4            1959 
         3043.7            2182 
           3044            2397 
         3044.3            2565 
         3044.6            2644 
         3044.9            2609 
         3045.2            2463 
         3045.5            2230 
         3045.8            1941 
         3046.1            1622 
         3046.4            1300 
         3046.7           999.4 
           3047           747.8 
         3047.3           568.2 
         3047.6           476.6 
         3047.9           477.4 
         3048.2           562.9 
         3048.5           712.6 
         3048.8           893.4 
         3049.1            1064 
         3049.4            1186 
         3049.7            1235 
           3050            1222 
         3050.3            1184 
         3050.6            1179 
         3050.9            1258 
         3051.2            1448 
         3051.5            1734 
         3051.8            2061 
         3052.1            2351 
         3052.4            2522 
         3052.7            2526 
           3053            2363 
         3053.3            2082 
         3053.6            1768 
         3053.9            1503 
         3054.2            1344 
         3054.5            1315 
         3054.8            1403 
         3055.1            1566 
         3055.4            1737 
         3055.7            1848 
           3056            1847 
         3056.3            1723 
         3056.6            1499 
         3056.9            1225 
         3057.2           955.9 
         3057.5             728 
         3057.8           557.2 
         3058.1           442.1 
         3058.4           376.9 
         3058.7           362.3 
           3059           409.3 
         3059.3             536 
         3059.6           758.4 
         3059.9            1082 
         3060.2            1493 
         3060.5            1962 
         3060.8            2452 
         3061.1            2926 
         3061.4            3362 
         3061.7            3741 
           3062            4040 
         3062.3            4215 
         3062.6            4214 
         3062.9            4006 
         3063.2            3611 
         3063.5            3111 
         3063.8            2629 
         3064.1            2280 
         3064.4            2132 
         3064.7            2174 
           3065            2324 
         3065.3            2470 
         3065.6            2513 
         3065.9            2420 
         3066.2            2229 
         3066.5            2032 
         3066.8            1946 
         3067.1            2076 
         3067.4            2496 
         3067.7            3228 
           3068            4221 
         3068.3            5333 
         3068.6            6353 
         3068.9            7054 
         3069.2            7292 
         3069.5            7071 
         3069.8            6549 
         3070.1            5964 
         3070.4            5511 
         3070.7            5268 
           3071            5178 
         3071.3            5117 
         3071.6            4977 
         3071.9            4725 
         3072.2            4406 
         3072.5            4099 
         3072.8            3865 
         3073.1            3723 
         3073.4            3654 
         3073.7            3621 
           3074            3592 
         3074.3            3553 
         3074.6            3534 
         3074.9            3615 
         3075.2            3913 
         3075.5            4528 
         3075.8            5465 
         3076.1            6583 
         3076.4            7621 
         3076.7            8282 
           3077            8371 
         3077.3            7876 
         3077.6            6976 
         3077.9            5957 
         3078.2            5104 
         3078.5            4606 
         3078.8            4510 
         3079.1            4726 
         3079.4            5072 
         3079.7            5342 
           3080            5378 
         3080.3            5126 
         3080.6            4650 
         3080.9            4101 
         3081.2            3650 
         3081.5            3422 
         3081.8            3453 
         3082.1            3696 
         3082.4            4051 
         3082.7            4423 
           3083            4772 
         3083.3            5127 
         3083.6            5548 
         3083.9            6073 
         3084.2            6668 
         3084.5            7244 
         3084.8            7694 
         3085.1            7934 
         3085.4            7919 
         3085.7            7646 
           3086            7164 
         3086.3            6564 
         3086.6            5961 
         3086.9            5451 
         3087.2            5095 
         3087.5            4908 
         3087.8            4864 
         3088.1            4900 
         3088.4            4937 
         3088.7            4921 
           3089            4863 
         3089.3            4833 
         3089.6            4907 
         3089.9            5086 
         3090.2            5264 
         3090.5            5274 
         3090.8            4991 
         3091.1            4405 
         3091.4            3627 
         3091.7            2830 
           3092            2172 
         3092.3            1750 
         3092.6            1597 
         3092.9            1694 
         3093.2            1985 
         3093.5            2389 
         3093.8            2813 
         3094.1            3171 
         3094.4            3398 
         3094.7            3474 
           3095            3428 
         3095.3            3325 
         3095.6            3239 
         3095.9            3236 
         3096.2            3359 
         3096.5            3633 
         3096.8            4063 
         3097.1            4610 
         3097.4            5171 
         3097.7            5583 
           3098            5678 
         3098.3            5365 
         3098.6            4678 
         3098.9            3764 
         3099.2            2814 
         3099.5            1990 
         3099.8            1379 
         3100.1             988 
         3100.4           776.9 
         3100.7             699 
           3101           733.1 
         3101.3            1240 
         3101.6            1815 
         3101.9            2627 
         3102.2            3622 
         3102.5            4687 
         3102.8            5698 
         3103.1            6571 
         3103.4            7271 
         3103.7            7778 
           3104            8042 
         3104.3            7978 
         3104.6            7529 
         3104.9            6742 
         3105.2            5789 
         3105.5            4917 
         3105.8            4348 
         3106.1            4192 
         3106.4            4438 
         3106.7            4991 
           3107            5743 
         3107.3            6615 
         3107.6            7564 
         3107.9            8537 
         3108.2            9441 
         3108.5           10140 
         3108.8           10510 
         3109.1           10530 
         3109.4           10320 
         3109.7           10130 
           3110           10190 
         3110.3           10660 
         3110.6           11470 
         3110.9           12380 
         3111.2           13070 
         3111.5           13270 
         3111.8           12840 
         3112.1           11840 
         3112.4           10480 
         3112.7            9069 
           3113            7949 
         3113.3            7431 
         3113.6            7707 
         3113.9            8786 
         3114.2           10470 
         3114.5           12400 
         3114.8           14120 
         3115.1           15240 
         3115.4           15480 
         3115.7           14760 
           3116           13230 
         3116.3           11160 
         3116.6            8940 
         3116.9            6936 
         3117.2            5414 
         3117.5            4490 
         3117.8            4134 
         3118.1            4200 
         3118.4            4485 
         3118.7            4802 
           3119            5052 
         3119.3            5236 
         3119.6            5416 
         3119.9            5636 
         3120.2            5860 
         3120.5            5990 
         3120.8            5934 
         3121.1            5697 
         3121.4            5399 
         3121.7            5226 
           3122            5361 
         3122.3            5908 
         3122.6            6878 
         3122.9            8162 
         3123.2            9545 
         3123.5           10740 
         3123.8           11450 
         3124.1           11550 
         3124.4           11110 
         3124.7           10370 
           3125            9635 
         3125.3            9154 
         3125.6            8996 
         3125.9            9075 
         3126.2            9207 
         3126.5            9193 
         3126.8            8890 
         3127.1            8272 
         3127.4            7444 
         3127.7            6611 
           3128            6004 
         3128.3            5789 
         3128.6            6001 
         3128.9            6509 
         3129.2            7071 
         3129.5            7433 
         3129.8            7448 
         3130.1            7133 
         3130.4            6635 
         3130.7            6141 
           3131            5772 
         3131.3            5543 
         3131.6            5387 
         3131.9            5199 
         3132.2            4900 
         3132.5            4468 
         3132.8            3959 
         3133.1            3506 
         3133.4            3280 
         3133.7            3429 
           3134            4004 
         3134.3            4913 
         3134.6            5929 
         3134.9            6777 
         3135.2            7254 
         3135.5            7326 
         3135.8            7132 
         3136.1            6910 
         3136.4            6889 
         3136.7            7215 
           3137            7926 
         3137.3            8957 
         3137.6           10170 
         3137.9           11360 
         3138.2           12310 
         3138.5           12860 
         3138.8           12930 
         3139.1           12580 
         3139.4           12010 
         3139.7           11490 
           3140           11230 
         3140.3           11290 
         3140.6           11500 
         3140.9           11560 
         3141.2           11260 
         3141.5           10600 
         3141.8            9726 
         3142.1            8854 
         3142.4            8085 
         3142.7            7406 
           3143            6749 
         3143.3            6100 
         3143.6            5535 
         3143.9            5187 
         3144.2            5192 
         3144.5            5644 
         3144.8            6555 
         3145.1            7817 
         3145.4            9188 
         3145.7           10320 
           3146           10910 
         3146.3           10820 
         3146.6           10140 
         3146.9            9229 
         3147.2            8478 
         3147.5            8249 
         3147.8            8762 
         3148.1           10060 
         3148.4           11990 
         3148.7           14280 
           3149           16620 
         3149.3           18670 
         3149.6           20240 
         3149.9           21160 
         3150.2           21320 
         3150.5           20660 
         3150.8           19250 
         3151.1           17280 
         3151.4           15020 
         3151.7           12800 
           3152           10920 
         3152.3            9545 
         3152.6            8697 
         3152.9            8226 
         3153.2            7894 
         3153.5            7488 
         3153.8            6923 
         3154.1            6279 
         3154.4            5728 
         3154.7            5423 
           3155            5419 
         3155.3            5656 
         3155.6            6018 
         3155.9            6376 
         3156.2            6645 
         3156.5            6797 
         3156.8            6861 
         3157.1            6900 
         3157.4            6978 
         3157.7            7143 
           3158            7409 
         3158.3            7771 
         3158.6            8184 
         3158.9            8565 
         3159.2            8797 
         3159.5            8764 
         3159.8            8400 
         3160.1            7727 
         3160.4            6862 
         3160.7            6001 
           3161            5355 
         3161.3            5109 
         3161.6            5354 
         3161.9            6070 
         3162.2            7110 
         3162.5            8235 
         3162.8            9169 
         3163.1            9692 
         3163.4            9709 
         3163.7            9283 
           3164            8598 
         3164.3            7886 
         3164.6            7368 
         3164.9            7217 
         3165.2            7542 
         3165.5            8369 
         3165.8            9626 
         3166.1           11120 
         3166.4           12570 
         3166.7           13640 
           3167           14050 
         3167.3           13700 
         3167.6           12700 
         3167.9           11330 
         3168.2            9994 
         3168.5            9009 
         3168.8            8572 
         3169.1            8763 
         3169.4            9603 
         3169.7           11110 
           3170           13310 
         3170.3           16110 
         3170.6           19290 
         3170.9           22460 
         3171.2           25160 
         3171.5           26960 
         3171.8           27560 
         3172.1           26950 
         3172.4           25460 
         3172.7           23670 
           3173           22230 
         3173.3           21600 
         3173.6           21800 
         3173.9           22490 
         3174.2           23250 
         3174.5           23800 
         3174.8           24210 
         3175.1           24730 
         3175.4           25520 
         3175.7           26480 
           3176           27230 
         3176.3           27310 
         3176.6           26450 
         3176.9           24690 
         3177.2           22410 
         3177.5           20090 
         3177.8           18100 
         3178.1           16580 
