# Granada HRES Library
# atmosphere = Phoenix  (atmosphere model used)
# feh = 0  (value for [Fe/H] for the model.)
# logg = 3 log(cm/s2) (value for Log(G) for the model.)
# teff = 3500 K (value for the effective temperature for the model. Temperatures are given in K)
#
# column 1: WAVELENGTH (ANGSTROM), Wavelength in Angstrom
# column 2: FLUX (ERG/CM2/S/A), Flux in erg/cm2/s/A
         3000.2           265.8 
         3000.5           234.4 
         3000.8           214.5 
         3001.1           204.2 
         3001.4           199.3 
         3001.7           195.1 
           3002           189.3 
         3002.3           183.4 
         3002.6           182.7 
         3002.9           194.1 
         3003.2           222.7 
         3003.5           270.1 
         3003.8           333.4 
         3004.1           405.7 
         3004.4             478 
         3004.7           541.1 
           3005           587.4 
         3005.3           611.1 
         3005.6           609.8 
         3005.9           584.4 
         3006.2             540 
         3006.5           485.2 
         3006.8           430.1 
         3007.1           383.1 
         3007.4           350.5 
         3007.7             335 
           3008           337.4 
         3008.3           356.7 
         3008.6             392 
         3008.9           443.9 
         3009.2           513.5 
         3009.5           598.2 
         3009.8           689.3 
         3010.1           770.5 
         3010.4           823.6 
         3010.7           837.4 
           3011           813.7 
         3011.3           766.8 
         3011.6           716.6 
         3011.9           679.1 
         3012.2           660.8 
         3012.5           658.6 
         3012.8           664.6 
         3013.1           671.4 
         3013.4           675.5 
         3013.7           675.9 
           3014           672.9 
         3014.3           667.3 
         3014.6           660.7 
         3014.9             655 
         3015.2           651.9 
         3015.5           651.1 
         3015.8           650.3 
         3016.1           646.4 
         3016.4           636.2 
         3016.7           617.8 
           3017           591.7 
         3017.3           560.9 
         3017.6           529.2 
         3017.9           498.7 
         3018.2           468.2 
         3018.5           434.9 
         3018.8           396.1 
         3019.1           351.3 
         3019.4           302.8 
         3019.7           254.4 
           3020             211 
         3020.3           178.4 
         3020.6           162.2 
         3020.9           166.4 
         3021.2           192.4 
         3021.5           237.3 
         3021.8           294.8 
         3022.1           355.7 
         3022.4           409.7 
         3022.7           447.5 
           3023           462.8 
         3023.3           454.6 
         3023.6           427.8 
         3023.9           391.7 
         3024.2           356.2 
         3024.5           327.8 
         3024.8           308.2 
         3025.1           296.3 
         3025.4           291.3 
         3025.7           294.1 
           3026           305.9 
         3026.3             326 
         3026.6           350.2 
         3026.9           372.5 
         3027.2           389.2 
         3027.5           401.4 
         3027.8           415.2 
         3028.1           438.7 
         3028.4           477.6 
         3028.7           531.2 
           3029           592.2 
         3029.3           649.3 
         3029.6           691.4 
         3029.9           713.3 
         3030.2           718.2 
         3030.5           716.9 
         3030.8           724.4 
         3031.1           753.9 
         3031.4           809.8 
         3031.7           882.9 
           3032           951.1 
         3032.3           987.5 
         3032.6           973.3 
         3032.9           906.9 
         3033.2           805.2 
         3033.5           696.7 
         3033.8           609.4 
         3034.1           561.3 
         3034.4           555.7 
         3034.7             582 
           3035             621 
         3035.3           652.6 
         3035.6             662 
         3035.9           643.3 
         3036.2           600.2 
         3036.5           543.8 
         3036.8           489.9 
         3037.1           454.5 
         3037.4           449.1 
         3037.7           475.9 
           3038             528 
         3038.3           591.8 
         3038.6           653.7 
         3038.9           705.2 
         3039.2           743.7 
         3039.5           768.5 
         3039.8           777.6 
         3040.1           767.1 
         3040.4           735.1 
         3040.7             686 
           3041             631 
         3041.3           586.4 
         3041.6           566.7 
         3041.9             579 
         3042.2           619.8 
         3042.5           676.2 
         3042.8           731.5 
         3043.1           772.2 
         3043.4           792.9 
         3043.7           796.2 
           3044           790.5 
         3044.3             785 
         3044.6           786.8 
         3044.9           798.3 
         3045.2           816.1 
         3045.5           830.6 
         3045.8           829.4 
         3046.1           801.3 
         3046.4           742.4 
         3046.7           659.1 
           3047           566.8 
         3047.3           484.6 
         3047.6           429.5 
         3047.9           411.3 
         3048.2           432.1 
         3048.5           485.7 
         3048.8             559 
         3049.1             634 
         3049.4           691.4 
         3049.7           717.3 
           3050             709 
         3050.3           675.7 
         3050.6           633.9 
         3050.9           599.3 
         3051.2           580.8 
         3051.5           578.7 
         3051.8           587.5 
         3052.1           598.7 
         3052.4           603.5 
         3052.7           595.2 
           3053           571.9 
         3053.3           537.1 
         3053.6           499.1 
         3053.9           467.3 
         3054.2           449.1 
         3054.5           446.3 
         3054.8           455.2 
         3055.1           468.2 
         3055.4           477.6 
         3055.7           478.6 
           3056           471.1 
         3056.3           458.8 
         3056.6           447.1 
         3056.9           440.5 
         3057.2           440.6 
         3057.5           445.4 
         3057.8           450.5 
         3058.1           451.6 
         3058.4           448.5 
         3058.7           446.8 
           3059           455.9 
         3059.3           484.5 
         3059.6           535.5 
         3059.9           604.4 
         3060.2           681.3 
         3060.5           754.5 
         3060.8           814.3 
         3061.1           855.4 
         3061.4           875.8 
         3061.7           874.8 
           3062           850.5 
         3062.3           799.7 
         3062.6           721.6 
         3062.9           621.7 
         3063.2           513.3 
         3063.5           413.6 
         3063.8           337.6 
         3064.1             292 
         3064.4           274.2 
         3064.7           275.1 
           3065           284.5 
         3065.3             296 
         3065.6           308.7 
         3065.9           325.1 
         3066.2           347.6 
         3066.5           375.3 
         3066.8           404.3 
         3067.1           429.4 
         3067.4           448.8 
         3067.7             464 
           3068           478.2 
         3068.3           492.2 
         3068.6           502.6 
         3068.9           503.4 
         3069.2           490.1 
         3069.5           464.1 
         3069.8           434.1 
         3070.1           413.6 
         3070.4           415.3 
         3070.7           445.2 
           3071           501.1 
         3071.3           574.6 
         3071.6           655.9 
         3071.9           737.3 
         3072.2           813.8 
         3072.5           881.5 
         3072.8           936.2 
         3073.1           974.5 
         3073.4           995.9 
         3073.7            1002 
           3074           996.7 
         3074.3           982.1 
         3074.6           963.2 
         3074.9           948.7 
         3075.2           951.3 
         3075.5           981.9 
         3075.8            1042 
         3076.1            1119 
         3076.4            1190 
         3076.7            1231 
           3077            1232 
         3077.3            1198 
         3077.6            1144 
         3077.9            1089 
         3078.2            1042 
         3078.5            1005 
         3078.8           968.2 
         3079.1           921.4 
         3079.4           858.1 
         3079.7             779 
           3080             690 
         3080.3           598.9 
         3080.6           513.2 
         3080.9           438.5 
         3081.2           379.8 
         3081.5           340.8 
         3081.8           323.1 
         3082.1           324.5 
         3082.4           338.4 
         3082.7           356.4 
           3083           372.5 
         3083.3           385.9 
         3083.6             401 
         3083.9           423.6 
         3084.2           458.1 
         3084.5             505 
         3084.8           561.6 
         3085.1           621.8 
         3085.4           677.4 
         3085.7           720.9 
           3086           751.3 
         3086.3           777.3 
         3086.6           816.1 
         3086.9           885.2 
         3087.2           992.7 
         3087.5            1130 
         3087.8            1270 
         3088.1            1377 
         3088.4            1417 
         3088.7            1373 
           3089            1251 
         3089.3            1077 
         3089.6           885.1 
         3089.9           708.5 
         3090.2             566 
         3090.5           462.8 
         3090.8           393.5 
         3091.1           348.1 
         3091.4           316.9 
         3091.7           293.8 
           3092           277.9 
         3092.3           273.1 
         3092.6           285.8 
         3092.9           320.8 
         3093.2             378 
         3093.5           450.8 
         3093.8           527.8 
         3094.1           597.1 
         3094.4           649.1 
         3094.7           678.3 
           3095           683.1 
         3095.3             667 
         3095.6           640.1 
         3095.9           619.9 
         3096.2           628.5 
         3096.5             684 
         3096.8           790.2 
         3097.1           929.4 
         3097.4            1065 
         3097.7            1153 
           3098            1161 
         3098.3            1082 
         3098.6           936.7 
         3098.9           765.7 
         3099.2           610.6 
         3099.5           501.3 
         3099.8           448.3 
         3100.1           443.2 
         3100.4           466.6 
         3100.7           497.8 
           3101             525 
         3101.3           581.5 
         3101.6           638.4 
         3101.9           727.8 
         3102.2           845.9 
         3102.5           977.8 
         3102.8            1104 
         3103.1            1207 
         3103.4            1282 
         3103.7            1324 
           3104            1333 
         3104.3            1303 
         3104.6            1229 
         3104.9            1117 
         3105.2           976.6 
         3105.5           832.7 
         3105.8           707.2 
         3106.1           615.6 
         3106.4             565 
         3106.7           554.2 
           3107           576.8 
         3107.3           621.4 
         3107.6           672.9 
         3107.9             716 
         3108.2           740.5 
         3108.5           745.9 
         3108.8           742.1 
         3109.1           745.3 
         3109.4           772.4 
         3109.7           834.4 
           3110           931.4 
         3110.3            1051 
         3110.6            1169 
         3110.9            1255 
         3111.2            1284 
         3111.5            1247 
         3111.8            1153 
         3112.1            1027 
         3112.4           899.7 
         3112.7           798.4 
           3113           740.2 
         3113.3           733.4 
         3113.6           780.4 
         3113.9           878.8 
         3114.2            1021 
         3114.5            1194 
         3114.8            1370 
         3115.1            1520 
         3115.4            1609 
         3115.7            1616 
           3116            1542 
         3116.3            1415 
         3116.6            1286 
         3116.9            1208 
         3117.2            1217 
         3117.5            1317 
         3117.8            1484 
         3118.1            1669 
         3118.4            1825 
         3118.7            1923 
           3119            1954 
         3119.3            1938 
         3119.6            1902 
         3119.9            1873 
         3120.2            1854 
         3120.5            1822 
         3120.8            1743 
         3121.1            1598 
         3121.4            1397 
         3121.7            1185 
           3122            1017 
         3122.3           937.4 
         3122.6           950.5 
         3122.9            1029 
         3123.2            1127 
         3123.5            1203 
         3123.8            1236 
         3124.1            1234 
         3124.4            1223 
         3124.7            1229 
           3125            1261 
         3125.3            1311 
         3125.6            1358 
         3125.9            1389 
         3126.2            1402 
         3126.5            1397 
         3126.8            1376 
         3127.1            1331 
         3127.4            1256 
         3127.7            1155 
           3128            1041 
         3128.3             932 
         3128.6           843.6 
         3128.9             786 
         3129.2           764.4 
         3129.5           780.2 
         3129.8           835.3 
         3130.1             933 
         3130.4            1076 
         3130.7            1261 
           3131            1467 
         3131.3            1656 
         3131.6            1785 
         3131.9            1819 
         3132.2            1757 
         3132.5            1626 
         3132.8            1467 
         3133.1            1320 
         3133.4            1209 
         3133.7            1150 
           3134            1146 
         3134.3            1189 
         3134.6            1252 
         3134.9            1299 
         3135.2            1302 
         3135.5            1257 
         3135.8            1187 
         3136.1            1131 
         3136.4            1121 
         3136.7            1176 
           3137            1292 
         3137.3            1448 
         3137.6            1607 
         3137.9            1734 
         3138.2            1800 
         3138.5            1801 
         3138.8            1756 
         3139.1            1697 
         3139.4            1658 
         3139.7            1660 
           3140            1711 
         3140.3            1796 
         3140.6            1891 
         3140.9            1969 
         3141.2            2016 
         3141.5            2036 
         3141.8            2041 
         3142.1            2032 
         3142.4            1994 
         3142.7            1912 
           3143            1785 
         3143.3            1638 
         3143.6            1505 
         3143.9            1404 
         3144.2            1334 
         3144.5            1280 
         3144.8            1224 
         3145.1            1159 
         3145.4            1084 
         3145.7            1009 
           3146           940.7 
         3146.3           897.7 
         3146.6           899.6 
         3146.9           967.6 
         3147.2            1116 
         3147.5            1347 
         3147.8            1639 
         3148.1            1954 
         3148.4            2228 
         3148.7            2404 
           3149            2441 
         3149.3            2342 
         3149.6            2149 
         3149.9            1918 
         3150.2            1696 
         3150.5            1509 
         3150.8            1355 
         3151.1            1230 
         3151.4            1132 
         3151.7            1064 
           3152            1028 
         3152.3            1024 
         3152.6            1044 
         3152.9            1078 
         3153.2            1118 
         3153.5            1170 
         3153.8            1244 
         3154.1            1347 
         3154.4            1466 
         3154.7            1571 
           3155            1629 
         3155.3            1623 
         3155.6            1565 
         3155.9            1493 
         3156.2            1446 
         3156.5            1448 
         3156.8            1501 
         3157.1            1587 
         3157.4            1684 
         3157.7            1778 
           3158            1865 
         3158.3            1946 
         3158.6            2021 
         3158.9            2077 
         3159.2            2095 
         3159.5            2059 
         3159.8            1978 
         3160.1            1887 
         3160.4            1831 
         3160.7            1841 
           3161            1917 
         3161.3            2030 
         3161.6            2153 
         3161.9            2278 
         3162.2            2414 
         3162.5            2571 
         3162.8            2736 
         3163.1            2884 
         3163.4            2988 
         3163.7            3045 
           3164            3063 
         3164.3            3051 
         3164.6            3010 
         3164.9            2939 
         3165.2            2852 
         3165.5            2779 
         3165.8            2766 
         3166.1            2854 
         3166.4            3061 
         3166.7            3368 
           3167            3710 
         3167.3            4000 
         3167.6            4150 
         3167.9            4119 
         3168.2            3935 
         3168.5            3687 
         3168.8            3475 
         3169.1            3360 
         3169.4            3332 
         3169.7            3332 
           3170            3289 
         3170.3            3175 
         3170.6            3012 
         3170.9            2855 
         3171.2            2761 
         3171.5            2750 
         3171.8            2797 
         3172.1            2855 
         3172.4            2886 
         3172.7            2893 
           3173            2916 
         3173.3            3013 
         3173.6            3213 
         3173.9            3504 
         3174.2            3827 
         3174.5            4120 
         3174.8            4335 
         3175.1            4452 
         3175.4            4468 
         3175.7            4379 
           3176            4188 
         3176.3            3912 
         3176.6            3596 
         3176.9            3294 
         3177.2            3067 
         3177.5            2950 
         3177.8            2946 
         3178.1            3014 
