# Granada HRES Library
# atmosphere = Phoenix  (atmosphere model used)
# feh = -5  (value for [Fe/H] for the model.)
# logg = 4 log(cm/s2) (value for Log(G) for the model.)
# teff = 4000 K (value for the effective temperature for the model. Temperatures are given in K)
#
# column 1: WAVELENGTH (ANGSTROM), Wavelength in Angstrom
# column 2: FLUX (ERG/CM2/S/A), Flux in erg/cm2/s/A
         3000.2            3631 
         3000.5            3425 
         3000.8            3272 
         3001.1            3167 
         3001.4            3082 
         3001.7            2981 
           3002            2853 
         3002.3            2726 
         3002.6            2671 
         3002.9            2764 
         3003.2            3058 
         3003.5            3553 
         3003.8            4204 
         3004.1            4926 
         3004.4            5629 
         3004.7            6234 
           3005            6683 
         3005.3            6943 
         3005.6            6996 
         3005.9            6840 
         3006.2            6494 
         3006.5            6008 
         3006.8            5458 
         3007.1            4934 
         3007.4            4521 
         3007.7            4274 
           3008            4214 
         3008.3            4331 
         3008.6            4593 
         3008.9            4972 
         3009.2            5447 
         3009.5            5991 
         3009.8            6552 
         3010.1            7039 
         3010.4            7348 
         3010.7            7413 
           3011            7245 
         3011.3            6945 
         3011.6            6652 
         3011.9            6481 
         3012.2            6473 
         3012.5            6582 
         3012.8            6719 
         3013.1            6802 
         3013.4            6790 
         3013.7            6686 
           3014            6521 
         3014.3            6333 
         3014.6            6162 
         3014.9            6031 
         3015.2            5953 
         3015.5            5927 
         3015.8            5943 
         3016.1            5982 
         3016.4            6018 
         3016.7            6021 
           3017            5968 
         3017.3            5856 
         3017.6            5698 
         3017.9            5512 
         3018.2            5303 
         3018.5            5059 
         3018.8            4761 
         3019.1            4399 
         3019.4            3977 
         3019.7            3517 
           3020            3071 
         3020.3            2707 
         3020.6            2504 
         3020.9            2522 
         3021.2            2777 
         3021.5            3231 
         3021.8            3799 
         3022.1            4376 
         3022.4            4853 
         3022.7            5150 
           3023            5227 
         3023.3            5103 
         3023.6            4850 
         3023.9            4566 
         3024.2            4334 
         3024.5            4185 
         3024.8            4099 
         3025.1            4040 
         3025.4            3999 
         3025.7            4009 
           3026            4123 
         3026.3            4369 
         3026.6            4725 
         3026.9            5127 
         3027.2            5502 
         3027.5            5809 
         3027.8            6056 
         3028.1            6282 
         3028.4            6528 
         3028.7            6802 
           3029            7079 
         3029.3            7308 
         3029.6            7435 
         3029.9            7436 
         3030.2            7323 
         3030.5            7156 
         3030.8            7032 
         3031.1            7053 
         3031.4            7286 
         3031.7            7716 
           3032            8228 
         3032.3            8643 
         3032.6            8796 
         3032.9            8616 
         3033.2            8153 
         3033.5            7560 
         3033.8            7029 
         3034.1            6714 
         3034.4            6668 
         3034.7            6841 
           3035            7097 
         3035.3            7283 
         3035.6            7279 
         3035.9            7044 
         3036.2            6608 
         3036.5            6065 
         3036.8            5539 
         3037.1            5153 
         3037.4            4998 
         3037.7            5096 
           3038            5408 
         3038.3            5840 
         3038.6            6287 
         3038.9            6667 
         3039.2            6932 
         3039.5            7059 
         3039.8            7037 
         3040.1            6863 
         3040.4            6553 
         3040.7            6153 
           3041            5740 
         3041.3            5409 
         3041.6            5255 
         3041.9            5340 
         3042.2            5667 
         3042.5            6174 
         3042.8            6753 
         3043.1            7288 
         3043.4            7701 
         3043.7            7962 
           3044            8089 
         3044.3            8131 
         3044.6            8141 
         3044.9            8160 
         3045.2            8188 
         3045.5            8181 
         3045.8            8060 
         3046.1            7757 
         3046.4            7252 
         3046.7            6602 
           3047            5919 
         3047.3            5342 
         3047.6            4982 
         3047.9            4898 
         3048.2            5091 
         3048.5            5506 
         3048.8            6045 
         3049.1            6583 
         3049.4            6995 
         3049.7            7198 
           3050            7187 
         3050.3            7036 
         3050.6            6866 
         3050.9            6783 
         3051.2            6835 
         3051.5            7006 
         3051.8            7231 
         3052.1            7428 
         3052.4            7519 
         3052.7            7451 
           3053            7214 
         3053.3            6852 
         3053.6            6448 
         3053.9            6104 
         3054.2            5900 
         3054.5            5868 
         3054.8            5982 
         3055.1            6166 
         3055.4            6330 
         3055.7            6402 
           3056            6346 
         3056.3            6167 
         3056.6            5904 
         3056.9            5613 
         3057.2            5347 
         3057.5            5137 
         3057.8            4984 
         3058.1            4872 
         3058.4            4796 
         3058.7            4783 
           3059            4894 
         3059.3            5189 
         3059.6            5691 
         3059.9            6357 
         3060.2            7093 
         3060.5            7782 
         3060.8            8322 
         3061.1            8660 
         3061.4            8793 
         3061.7            8746 
           3062            8535 
         3062.3            8149 
         3062.6            7567 
         3062.9            6802 
         3063.2            5928 
         3063.5            5074 
         3063.8            4379 
         3064.1            3932 
         3064.4            3743 
         3064.7            3747 
           3065            3842 
         3065.3            3935 
         3065.6            3977 
         3065.9            3968 
         3066.2            3946 
         3066.5            3951 
         3066.8            4006 
         3067.1            4117 
         3067.4            4284 
         3067.7            4503 
           3068            4770 
         3068.3            5062 
         3068.6            5337 
         3068.9            5542 
         3069.2            5633 
         3069.5            5612 
         3069.8            5534 
         3070.1            5495 
         3070.4            5587 
         3070.7            5856 
           3071            6287 
         3071.3            6819 
         3071.6            7391 
         3071.9            7965 
         3072.2            8519 
         3072.5            9019 
         3072.8            9409 
         3073.1            9631 
         3073.4            9670 
         3073.7            9562 
           3074            9376 
         3074.3            9170 
         3074.6            8982 
         3074.9            8853 
         3075.2            8845 
         3075.5            9027 
         3075.8            9426 
         3076.1            9979 
         3076.4           10540 
         3076.7           10950 
           3077           11090 
         3077.3           10950 
         3077.6           10600 
         3077.9           10190 
         3078.2            9821 
         3078.5            9549 
         3078.8            9343 
         3079.1            9119 
         3079.4            8791 
         3079.7            8319 
           3080            7718 
         3080.3            7042 
         3080.6            6356 
         3080.9            5723 
         3081.2            5199 
         3081.5            4828 
         3081.8            4634 
         3082.1            4605 
         3082.4            4692 
         3082.7            4831 
           3083            4975 
         3083.3            5121 
         3083.6            5291 
         3083.9            5514 
         3084.2            5792 
         3084.5            6112 
         3084.8            6451 
         3085.1            6783 
         3085.4            7073 
         3085.7            7283 
           3086            7400 
         3086.3            7470 
         3086.6            7597 
         3086.9            7895 
         3087.2            8427 
         3087.5            9157 
         3087.8            9938 
         3088.1           10550 
         3088.4           10770 
         3088.7           10500 
           3089            9762 
         3089.3            8729 
         3089.6            7629 
         3089.9            6656 
         3090.2            5908 
         3090.5            5383 
         3090.8            5016 
         3091.1            4726 
         3091.4            4451 
         3091.7            4167 
           3092            3899 
         3092.3            3717 
         3092.6            3705 
         3092.9            3927 
         3093.2            4380 
         3093.5            4988 
         3093.8            5628 
         3094.1            6175 
         3094.4            6539 
         3094.7            6680 
           3095            6611 
         3095.3            6381 
         3095.6            6073 
         3095.9            5799 
         3096.2            5684 
         3096.5            5827 
         3096.8            6258 
         3097.1            6898 
         3097.4            7567 
         3097.7            8041 
           3098            8143 
         3098.3            7815 
         3098.6            7142 
         3098.9            6312 
         3099.2            5542 
         3099.5            5004 
         3099.8            4776 
         3100.1            4828 
         3100.4            5052 
         3100.7            5318 
           3101            5536 
         3101.3            5856 
         3101.6            6123 
         3101.9            6562 
         3102.2            7181 
         3102.5            7919 
         3102.8            8678 
         3103.1            9366 
         3103.4            9913 
         3103.7           10270 
           3104           10390 
         3104.3           10230 
         3104.6            9795 
         3104.9            9119 
         3105.2            8319 
         3105.5            7543 
         3105.8            6919 
         3106.1            6530 
         3106.4            6395 
         3106.7            6487 
           3107            6751 
         3107.3            7118 
         3107.6            7508 
         3107.9            7843 
         3108.2            8072 
         3108.5            8195 
         3108.8            8266 
         3109.1            8372 
         3109.4            8592 
         3109.7            8972 
           3110            9493 
         3110.3           10070 
         3110.6           10590 
         3110.9           10910 
         3111.2           10950 
         3111.5           10700 
         3111.8           10240 
         3112.1            9718 
         3112.4            9276 
         3112.7            9049 
           3113            9149 
         3113.3            9658 
         3113.6           10610 
         3113.9           11990 
         3114.2           13650 
         3114.5           15390 
         3114.8           16900 
         3115.1           17840 
         3115.4           18010 
         3115.7           17350 
           3116           15970 
         3116.3           14200 
         3116.6           12480 
         3116.9           11150 
         3117.2           10480 
         3117.5           10490 
         3117.8           11020 
         3118.1           11790 
         3118.4           12520 
         3118.7           13040 
           3119           13350 
         3119.3           13580 
         3119.6           13910 
         3119.9           14400 
         3120.2           14970 
         3120.5           15320 
         3120.8           15140 
         3121.1           14250 
         3121.4           12800 
         3121.7           11130 
           3122            9698 
         3122.3            8817 
         3122.6            8591 
         3122.9            8901 
         3123.2            9504 
         3123.5           10150 
         3123.8           10670 
         3124.1           11020 
         3124.4           11260 
         3124.7           11470 
           3125           11760 
         3125.3           12170 
         3125.6           12720 
         3125.9           13390 
         3126.2           14110 
         3126.5           14740 
         3126.8           15050 
         3127.1           14820 
         3127.4           14010 
         3127.7           12720 
           3128           11280 
         3128.3            9996 
         3128.6            9065 
         3128.9            8547 
         3129.2            8392 
         3129.5            8519 
         3129.8            8885 
         3130.1            9498 
         3130.4           10390 
         3130.7           11520 
           3131           12770 
         3131.3           13870 
         3131.6           14540 
         3131.9           14550 
         3132.2           13910 
         3132.5           12790 
         3132.8           11490 
         3133.1           10310 
         3133.4            9469 
         3133.7            9128 
           3134            9326 
         3134.3            9964 
         3134.6           10800 
         3134.9           11520 
         3135.2           11890 
         3135.5           11840 
         3135.8           11540 
         3136.1           11290 
         3136.4           11430 
         3136.7           12180 
           3137           13600 
         3137.3           15510 
         3137.6           17530 
         3137.9           19210 
         3138.2           20140 
         3138.5           20130 
         3138.8           19310 
         3139.1           17990 
         3139.4           16550 
         3139.7           15330 
           3140           14480 
         3140.3           14040 
         3140.6           13890 
         3140.9           13880 
         3141.2           13900 
         3141.5           13910 
         3141.8           13920 
         3142.1           13890 
         3142.4           13750 
         3142.7           13400 
           3143           12840 
         3143.3           12190 
         3143.6           11610 
         3143.9           11230 
         3144.2           11030 
         3144.5           10950 
         3144.8           10890 
         3145.1           10810 
         3145.4           10680 
         3145.7           10460 
           3146           10150 
         3146.3            9826 
         3146.6            9671 
         3146.9            9917 
         3147.2           10780 
         3147.5           12320 
         3147.8           14440 
         3148.1           16760 
         3148.4           18820 
         3148.7           20100 
           3149           20280 
         3149.3           19370 
         3149.6           17700 
         3149.9           15750 
         3150.2           13930 
         3150.5           12500 
         3150.8           11530 
         3151.1           10960 
         3151.4           10690 
         3151.7           10640 
           3152           10740 
         3152.3           10900 
         3152.6           11030 
         3152.9           11090 
         3153.2           11070 
         3153.5           11070 
         3153.8           11250 
         3154.1           11720 
         3154.4           12450 
         3154.7           13270 
           3155           13930 
         3155.3           14250 
         3155.6           14250 
         3155.9           14120 
         3156.2           14140 
         3156.5           14500 
         3156.8           15290 
         3157.1           16440 
         3157.4           17790 
         3157.7           19190 
           3158           20530 
         3158.3           21730 
         3158.6           22750 
         3158.9           23430 
         3159.2           23550 
         3159.5           22920 
         3159.8           21500 
         3160.1           19600 
         3160.4           17740 
         3160.7           16430 
           3161           16050 
         3161.3           16740 
         3161.6           18460 
         3161.9           21070 
         3162.2           24240 
         3162.5           27480 
         3162.8           30090 
         3163.1           31480 
         3163.4           31360 
         3163.7           29990 
           3164           27980 
         3164.3           25990 
         3164.6           24490 
         3164.9           23710 
         3165.2           23750 
         3165.5           24700 
         3165.8           26680 
         3166.1           29630 
         3166.4           33200 
         3166.7           36700 
           3167           39300 
         3167.3           40320 
         3167.6           39590 
         3167.9           37590 
         3168.2           35320 
         3168.5           33910 
         3168.8           34130 
         3169.1           36030 
         3169.4           38850 
         3169.7           41470 
           3170           42830 
         3170.3           42530 
         3170.6           40970 
         3170.9           39080 
         3171.2           37820 
         3171.5           37670 
         3171.8           38400 
         3172.1           39290 
         3172.4           39700 
         3172.7           39530 
           3173           39350 
         3173.3           40070 
         3173.6           42230 
         3173.9           45690 
         3174.2           49710 
         3174.5           53400 
         3174.8           56330 
         3175.1           58440 
         3175.4           59860 
         3175.7           60450 
           3176           59850 
         3176.3           57700 
         3176.6           54000 
         3176.9           49300 
         3177.2           44600 
         3177.5           40910 
         3177.8           38750 
         3178.1           37890 
