# Granada HRES Library
# atmosphere = Phoenix  (atmosphere model used)
# feh = -5  (value for [Fe/H] for the model.)
# logg = 4 log(cm/s2) (value for Log(G) for the model.)
# teff = 3500 K (value for the effective temperature for the model. Temperatures are given in K)
#
# column 1: WAVELENGTH (ANGSTROM), Wavelength in Angstrom
# column 2: FLUX (ERG/CM2/S/A), Flux in erg/cm2/s/A
         3000.2           572.8 
         3000.5           525.7 
         3000.8           494.2 
         3001.1           477.1 
         3001.4           468.3 
         3001.7           460.5 
           3002           450.7 
         3002.3           443.6 
         3002.6           451.8 
         3002.9             490 
         3003.2           569.5 
         3003.5           692.5 
         3003.8           850.4 
         3004.1            1026 
         3004.4            1196 
         3004.7            1339 
           3005            1438 
         3005.3            1481 
         3005.6            1464 
         3005.9            1390 
         3006.2            1270 
         3006.5            1121 
         3006.8           970.1 
         3007.1           838.3 
         3007.4           742.8 
         3007.7           692.5 
           3008           688.7 
         3008.3           728.9 
         3008.6           810.1 
         3008.9           931.4 
         3009.2            1093 
         3009.5            1287 
         3009.8            1496 
         3010.1            1687 
         3010.4            1822 
         3010.7            1878 
           3011            1854 
         3011.3            1780 
         3011.6            1692 
         3011.9            1626 
         3012.2            1596 
         3012.5            1596 
         3012.8            1606 
         3013.1            1609 
         3013.4            1596 
         3013.7            1568 
           3014            1528 
         3014.3            1480 
         3014.6            1431 
         3014.9            1389 
         3015.2            1358 
         3015.5            1340 
         3015.8            1330 
         3016.1            1320 
         3016.4            1302 
         3016.7            1269 
           3017            1218 
         3017.3            1154 
         3017.6            1085 
         3017.9            1020 
         3018.2           953.9 
         3018.5           885.9 
         3018.8           810.2 
         3019.1           725.2 
         3019.4           633.6 
         3019.7           541.7 
           3020           458.4 
         3020.3           394.6 
         3020.6           361.8 
         3020.9           368.7 
         3021.2             419 
         3021.5           508.1 
         3021.8           623.5 
         3022.1           746.8 
         3022.4           856.6 
         3022.7           933.9 
           3023           966.8 
         3023.3           955.2 
         3023.6           910.7 
         3023.9           852.5 
         3024.2           798.3 
         3024.5             757 
         3024.8           728.4 
         3025.1           709.1 
         3025.4           700.3 
         3025.7           709.9 
           3026           746.9 
         3026.3           813.4 
         3026.6           899.9 
         3026.9           989.3 
         3027.2            1067 
         3027.5            1130 
         3027.8            1188 
         3028.1            1259 
         3028.4            1356 
         3028.7            1477 
           3029            1608 
         3029.3            1721 
         3029.6            1793 
         3029.9            1813 
         3030.2            1789 
         3030.5            1742 
         3030.8            1704 
         3031.1            1707 
         3031.4            1765 
         3031.7            1873 
           3032            1994 
         3032.3            2081 
         3032.6            2089 
         3032.9            2006 
         3033.2            1850 
         3033.5            1671 
         3033.8            1522 
         3034.1            1443 
         3034.4            1444 
         3034.7            1504 
           3035            1582 
         3035.3            1631 
         3035.6            1620 
         3035.9            1539 
         3036.2            1401 
         3036.5            1234 
         3036.8            1078 
         3037.1           967.2 
         3037.4           927.7 
         3037.7           966.8 
           3038            1073 
         3038.3            1218 
         3038.6            1373 
         3038.9            1509 
         3039.2            1609 
         3039.5            1662 
         3039.8            1665 
         3040.1            1620 
         3040.4            1536 
         3040.7            1430 
           3041            1326 
         3041.3            1253 
         3041.6            1231 
         3041.9            1273 
         3042.2            1373 
         3042.5            1507 
         3042.8            1643 
         3043.1            1753 
         3043.4            1822 
         3043.7            1853 
           3044            1859 
         3044.3            1858 
         3044.6            1863 
         3044.9            1877 
         3045.2            1892 
         3045.5            1889 
         3045.8            1844 
         3046.1            1742 
         3046.4            1582 
         3046.7            1383 
           3047            1178 
         3047.3            1005 
         3047.6           896.4 
         3047.9           868.2 
         3048.2           922.1 
         3048.5            1044 
         3048.8            1204 
         3049.1            1364 
         3049.4            1484 
         3049.7            1538 
           3050            1523 
         3050.3            1465 
         3050.6            1402 
         3050.9            1369 
         3051.2            1381 
         3051.5            1434 
         3051.8            1508 
         3052.1            1576 
         3052.4            1614 
         3052.7            1604 
           3053            1543 
         3053.3            1446 
         3053.6            1337 
         3053.9            1249 
         3054.2            1202 
         3054.5            1205 
         3054.8            1246 
         3055.1            1302 
         3055.4            1346 
         3055.7            1357 
           3056            1330 
         3056.3            1270 
         3056.6            1190 
         3056.9            1105 
         3057.2            1028 
         3057.5             966 
         3057.8           918.3 
         3058.1           882.4 
         3058.4             859 
         3058.7           856.3 
           3059           889.1 
         3059.3           970.8 
         3059.6            1106 
         3059.9            1285 
         3060.2            1485 
         3060.5            1679 
         3060.8            1841 
         3061.1            1952 
         3061.4            2006 
         3061.7            2001 
           3062            1938 
         3062.3            1814 
         3062.6            1632 
         3062.9            1402 
         3063.2            1150 
         3063.5           910.8 
         3063.8           717.7 
         3064.1           589.7 
         3064.4           527.5 
         3064.7           516.4 
           3065           533.9 
         3065.3           559.4 
         3065.6           580.3 
         3065.9           593.1 
         3066.2           600.8 
         3066.5           607.5 
         3066.8           615.4 
         3067.1           624.9 
         3067.4           637.2 
         3067.7           655.5 
           3068           683.2 
         3068.3           719.9 
         3068.6           759.6 
         3068.9             793 
         3069.2           812.2 
         3069.5           817.6 
         3069.8           820.7 
         3070.1             841 
         3070.4           897.1 
         3070.7             998 
           3071            1140 
         3071.3            1309 
         3071.6            1493 
         3071.9            1682 
         3072.2            1868 
         3072.5            2035 
         3072.8            2162 
         3073.1            2230 
         3073.4            2236 
         3073.7            2194 
           3074            2129 
         3074.3            2064 
         3074.6            2011 
         3074.9            1978 
         3075.2            1976 
         3075.5            2020 
         3075.8            2112 
         3076.1            2237 
         3076.4            2359 
         3076.7            2441 
           3077            2459 
         3077.3            2415 
         3077.6            2327 
         3077.9            2223 
         3078.2            2125 
         3078.5            2039 
         3078.8            1953 
         3079.1            1851 
         3079.4            1719 
         3079.7            1558 
           3080            1381 
         3080.3            1204 
         3080.6            1037 
         3080.9           890.8 
         3081.2           768.9 
         3081.5           676.8 
         3081.8           618.9 
         3082.1           595.1 
         3082.4             600 
         3082.7           625.1 
           3083           664.2 
         3083.3             716 
         3083.6           782.1 
         3083.9           862.7 
         3084.2           953.3 
         3084.5            1047 
         3084.8            1138 
         3085.1            1222 
         3085.4            1293 
         3085.7            1346 
           3086            1380 
         3086.3            1405 
         3086.6            1446 
         3086.9            1530 
         3087.2            1673 
         3087.5            1866 
         3087.8            2070 
         3088.1            2229 
         3088.4            2288 
         3088.7            2217 
           3089            2022 
         3089.3            1745 
         3089.6            1440 
         3089.9            1160 
         3090.2           937.9 
         3090.5           780.9 
         3090.8           679.2 
         3091.1           614.9 
         3091.4           570.2 
         3091.7           534.1 
           3092           504.3 
         3092.3             487 
         3092.6             493 
         3092.9           530.8 
         3093.2           600.6 
         3093.5           692.3 
         3093.8           788.3 
         3094.1           870.1 
         3094.4           924.2 
         3094.7           945.1 
           3095           935.8 
         3095.3           906.3 
         3095.6           874.4 
         3095.9           863.9 
         3096.2           899.5 
         3096.5           997.4 
         3096.8            1153 
         3097.1            1337 
         3097.4            1499 
         3097.7            1587 
           3098            1571 
         3098.3            1452 
         3098.6            1266 
         3098.9            1062 
         3099.2             890 
         3099.5           781.6 
         3099.8           744.3 
         3100.1           763.4 
         3100.4           810.7 
         3100.7           857.9 
           3101           889.2 
         3101.3           929.9 
         3101.6           982.3 
         3101.9            1081 
         3102.2            1229 
         3102.5            1417 
         3102.8            1622 
         3103.1            1819 
         3103.4            1980 
         3103.7            2082 
           3104            2104 
         3104.3            2036 
         3104.6            1883 
         3104.9            1673 
         3105.2            1443 
         3105.5            1238 
         3105.8            1092 
         3106.1            1021 
         3106.4            1023 
         3106.7            1084 
           3107            1182 
         3107.3            1293 
         3107.6            1391 
         3107.9            1453 
         3108.2            1475 
         3108.5            1469 
         3108.8            1470 
         3109.1            1511 
         3109.4            1618 
         3109.7            1791 
           3110            2003 
         3110.3            2215 
         3110.6            2378 
         3110.9            2455 
         3111.2            2434 
         3111.5            2329 
         3111.8            2178 
         3112.1            2023 
         3112.4            1905 
         3112.7            1849 
           3113            1872 
         3113.3            1985 
         3113.6            2198 
         3113.9            2507 
         3114.2            2894 
         3114.5            3314 
         3114.8            3695 
         3115.1            3958 
         3115.4            4036 
         3115.7            3900 
           3116            3575 
         3116.3            3149 
         3116.6            2735 
         3116.9            2444 
         3117.2            2355 
         3117.5            2473 
         3117.8            2750 
         3118.1            3092 
         3118.4            3407 
         3118.7            3631 
           3119            3749 
         3119.3            3797 
         3119.6            3826 
         3119.9            3867 
         3120.2            3902 
         3120.5            3869 
         3120.8            3698 
         3121.1            3356 
         3121.4            2883 
         3121.7            2374 
           3122            1946 
         3122.3            1678 
         3122.6            1593 
         3122.9            1651 
         3123.2            1786 
         3123.5            1937 
         3123.8            2066 
         3124.1            2164 
         3124.4            2251 
         3124.7            2345 
           3125            2454 
         3125.3            2571 
         3125.6            2687 
         3125.9            2794 
         3126.2            2889 
         3126.5            2962 
         3126.8            2987 
         3127.1            2932 
         3127.4            2784 
         3127.7            2563 
           3128            2313 
         3128.3            2084 
         3128.6            1907 
         3128.9            1797 
         3129.2            1760 
         3129.5            1798 
         3129.8            1919 
         3130.1            2132 
         3130.4            2432 
         3130.7            2796 
           3131            3170 
         3131.3            3476 
         3131.6            3633 
         3131.9            3597 
         3132.2            3379 
         3132.5            3040 
         3132.8            2669 
         3133.1            2341 
         3133.4            2114 
         3133.7            2016 
           3134            2056 
         3134.3            2208 
         3134.6            2412 
         3134.9            2587 
         3135.2            2661 
         3135.5            2611 
         3135.8            2472 
         3136.1            2320 
         3136.4            2242 
         3136.7            2296 
           3137            2506 
         3137.3            2841 
         3137.6            3233 
         3137.9            3592 
         3138.2            3833 
         3138.5            3915 
         3138.8            3844 
         3139.1            3668 
         3139.4            3451 
         3139.7            3253 
           3140            3112 
         3140.3            3038 
         3140.6            3018 
         3140.9            3027 
         3141.2            3041 
         3141.5            3054 
         3141.8            3067 
         3142.1            3069 
         3142.4            3043 
         3142.7            2969 
           3143            2856 
         3143.3            2739 
         3143.6            2659 
         3143.9            2635 
         3144.2            2652 
         3144.5            2671 
         3144.8            2661 
         3145.1            2607 
         3145.4            2508 
         3145.7            2370 
           3146            2207 
         3146.3            2054 
         3146.6            1967 
         3146.9            2014 
         3147.2            2241 
         3147.5            2653 
         3147.8            3197 
         3148.1            3766 
         3148.4            4225 
         3148.7            4457 
           3149            4401 
         3149.3            4086 
         3149.6            3611 
         3149.9            3098 
         3150.2            2652 
         3150.5            2328 
         3150.8            2134 
         3151.1            2055 
         3151.4            2068 
         3151.7            2149 
           3152            2278 
         3152.3            2426 
         3152.6            2558 
         3152.9            2649 
         3153.2            2686 
         3153.5            2688 
         3153.8            2698 
         3154.1            2760 
         3154.4            2885 
         3154.7            3048 
           3155            3198 
         3155.3            3300 
         3155.6            3356 
         3155.9            3411 
         3156.2            3525 
         3156.5            3741 
         3156.8            4070 
         3157.1            4481 
         3157.4            4927 
         3157.7            5356 
           3158            5737 
         3158.3            6050 
         3158.6            6281 
         3158.9            6395 
         3159.2            6344 
         3159.5            6100 
         3159.8            5694 
         3160.1            5228 
         3160.4            4841 
         3160.7            4645 
           3161            4675 
         3161.3            4880 
         3161.6            5178 
         3161.9            5494 
         3162.2            5789 
         3162.5            6035 
         3162.8            6205 
         3163.1            6272 
         3163.4            6238 
         3163.7            6144 
           3164            6058 
         3164.3            6028 
         3164.6            6074 
         3164.9            6194 
         3165.2            6402 
         3165.5            6736 
         3165.8            7246 
         3166.1            7952 
         3166.4            8807 
         3166.7            9681 
           3167           10380 
         3167.3           10750 
         3167.6           10680 
         3167.9           10250 
         3168.2            9649 
         3168.5            9141 
         3168.8            8945 
         3169.1            9118 
         3169.4            9529 
         3169.7            9931 
           3170           10090 
         3170.3            9905 
         3170.6            9444 
         3170.9            8900 
         3171.2            8464 
         3171.5            8233 
         3171.8            8177 
         3172.1            8174 
         3172.4            8120 
         3172.7            8001 
           3173            7914 
         3173.3            8010 
         3173.6            8394 
         3173.9            9064 
         3174.2            9903 
         3174.5           10740 
         3174.8           11450 
         3175.1           11950 
         3175.4           12210 
         3175.7           12220 
           3176           11960 
         3176.3           11460 
         3176.6           10780 
         3176.9           10070 
         3177.2            9456 
         3177.5            9100 
         3177.8            9040 
         3178.1            9183 
