# Granada HRES Library
# atmosphere = Phoenix  (atmosphere model used)
# feh = 0  (value for [Fe/H] for the model.)
# logg = 4.5 log(cm/s2) (value for Log(G) for the model.)
# teff = 3000 K (value for the effective temperature for the model. Temperatures are given in K)
#
# column 1: WAVELENGTH (ANGSTROM), Wavelength in Angstrom
# column 2: FLUX (ERG/CM2/S/A), Flux in erg/cm2/s/A
         3000.2           32.19 
         3000.5           28.04 
         3000.8           25.17 
         3001.1           23.62 
         3001.4           23.06 
         3001.7           23.01 
           3002           23.26 
         3002.3           24.11 
         3002.6           26.46 
         3002.9           31.47 
         3003.2           40.21 
         3003.5           53.03 
         3003.8           69.46 
         3004.1           88.05 
         3004.4           106.6 
         3004.7           122.7 
           3005           133.9 
         3005.3           138.8 
         3005.6           136.5 
         3005.9           127.2 
         3006.2           112.5 
         3006.5           94.63 
         3006.8            76.4 
         3007.1           60.42 
         3007.4           48.65 
         3007.7           42.15 
           3008           41.22 
         3008.3           45.63 
         3008.6           54.99 
         3008.9           68.96 
         3009.2           87.12 
         3009.5           108.5 
         3009.8           131.1 
         3010.1           151.8 
         3010.4           167.2 
         3010.7           174.9 
           3011           174.6 
         3011.3           168.7 
         3011.6           161.2 
         3011.9           155.6 
         3012.2           154.2 
         3012.5           156.7 
         3012.8           161.4 
         3013.1           165.9 
         3013.4           168.4 
         3013.7           167.8 
           3014           163.8 
         3014.3           157.2 
         3014.6           148.9 
         3014.9           140.4 
         3015.2           132.3 
         3015.5           125.2 
         3015.8           118.8 
         3016.1           112.5 
         3016.4           105.9 
         3016.7           98.46 
           3017            90.1 
         3017.3           81.24 
         3017.6           72.54 
         3017.9           64.52 
         3018.2           57.23 
         3018.5           50.31 
         3018.8           43.35 
         3019.1           36.28 
         3019.4           29.29 
         3019.7           22.85 
           3020           17.49 
         3020.3            13.7 
         3020.6           11.96 
         3020.9           12.61 
         3021.2            15.8 
         3021.5           21.34 
         3021.8           28.68 
         3022.1            36.8 
         3022.4           44.44 
         3022.7           50.35 
           3023           53.65 
         3023.3            54.2 
         3023.6           52.67 
         3023.9           50.16 
         3024.2           47.68 
         3024.5           45.69 
         3024.8           44.16 
         3025.1           43.14 
         3025.4            43.2 
         3025.7           45.58 
           3026           51.57 
         3026.3           61.68 
         3026.6            75.3 
         3026.9           90.84 
         3027.2           106.5 
         3027.5           121.1 
         3027.8           134.5 
         3028.1           147.6 
         3028.4             161 
         3028.7             175 
           3029           188.9 
         3029.3             201 
         3029.6           209.1 
         3029.9           211.9 
         3030.2           209.1 
         3030.5           202.4 
         3030.8           194.8 
         3031.1           190.4 
         3031.4           192.5 
         3031.7           202.1 
           3032           217.2 
         3032.3             233 
         3032.6           243.8 
         3032.9           245.6 
         3033.2           237.8 
         3033.5           223.2 
         3033.8           206.5 
         3034.1           192.5 
         3034.4           183.7 
         3034.7           179.8 
           3035           177.5 
         3035.3           172.8 
         3035.6           162.6 
         3035.9             146 
         3036.2           124.6 
         3036.5           101.7 
         3036.8           81.09 
         3037.1           66.36 
         3037.4           59.93 
         3037.7           62.75 
           3038           74.14 
         3038.3           91.98 
         3038.6           113.2 
         3038.9           134.3 
         3039.2           152.3 
         3039.5           164.9 
         3039.8           171.5 
         3040.1           172.6 
         3040.4           169.7 
         3040.7           164.5 
           3041           158.8 
         3041.3           154.3 
         3041.6           152.8 
         3041.9           155.4 
         3042.2           162.2 
         3042.5           171.9 
         3042.8           181.9 
         3043.1           189.6 
         3043.4           193.9 
         3043.7           194.8 
           3044           193.3 
         3044.3           190.7 
         3044.6           187.5 
         3044.9           183.6 
         3045.2             178 
         3045.5           169.5 
         3045.8           156.8 
         3046.1           139.6 
         3046.4           118.9 
         3046.7           96.91 
           3047           76.69 
         3047.3           61.13 
         3047.6           52.36 
         3047.9           51.25 
         3048.2           57.42 
         3048.5            69.3 
         3048.8           84.18 
         3049.1           98.64 
         3049.4           109.4 
         3049.7           114.1 
           3050           113.1 
         3050.3           108.7 
         3050.6           104.7 
         3050.9           104.7 
         3051.2           110.5 
         3051.5           121.9 
         3051.8           136.7 
         3052.1           151.6 
         3052.4           162.9 
         3052.7           167.9 
           3053           165.3 
         3053.3           156.5 
         3053.6           144.9 
         3053.9           134.7 
         3054.2           129.3 
         3054.5           130.1 
         3054.8           135.6 
         3055.1           142.9 
         3055.4           148.3 
         3055.7           148.9 
           3056           143.5 
         3056.3           132.8 
         3056.6           118.3 
         3056.9           102.2 
         3057.2           86.56 
         3057.5           72.83 
         3057.8           61.75 
         3058.1           53.54 
         3058.4           48.37 
         3058.7           46.82 
           3059           49.86 
         3059.3           58.46 
         3059.6           72.94 
         3059.9           92.65 
         3060.2           115.9 
         3060.5           140.3 
         3060.8           163.6 
         3061.1             184 
         3061.4           200.1 
         3061.7           210.8 
           3062           214.8 
         3062.3           210.5 
         3062.6           196.6 
         3062.9           174.1 
         3063.2           146.1 
         3063.5           117.6 
         3063.8           93.63 
         3064.1           77.77 
         3064.4           70.79 
         3064.7            70.9 
           3065           74.77 
         3065.3           79.01 
         3065.6           81.33 
         3065.9           81.13 
         3066.2           79.21 
         3066.5            76.9 
         3066.8           75.36 
         3067.1           75.26 
         3067.4           77.01 
         3067.7           80.94 
           3068           87.08 
         3068.3           94.92 
         3068.6           103.3 
         3068.9           110.9 
         3069.2           116.6 
         3069.5           120.7 
         3069.8           124.8 
         3070.1           131.1 
         3070.4           141.5 
         3070.7           156.7 
           3071           176.1 
         3071.3           198.5 
         3071.6           223.6 
         3071.9           251.1 
         3072.2           280.3 
         3072.5             308 
         3072.8           329.2 
         3073.1           339.2 
         3073.4             336 
         3073.7           321.8 
           3074           301.3 
         3074.3           279.4 
         3074.6           259.6 
         3074.9           244.1 
         3075.2           234.8 
         3075.5           233.8 
         3075.8           241.7 
         3076.1           256.5 
         3076.4           273.3 
         3076.7           286.7 
           3077           292.6 
         3077.3           290.1 
         3077.6           280.9 
         3077.9           268.2 
         3078.2           254.7 
         3078.5           241.5 
         3078.8           227.9 
         3079.1           212.5 
         3079.4           193.7 
         3079.7           171.7 
           3080           147.6 
         3080.3           123.1 
         3080.6           99.84 
         3080.9           79.15 
         3081.2           61.83 
         3081.5           48.45 
         3081.8            39.4 
         3082.1            34.8 
         3082.4           34.49 
         3082.7           38.07 
           3083           45.15 
         3083.3           55.35 
         3083.6           68.21 
         3083.9           82.94 
         3084.2           98.58 
         3084.5           114.3 
         3084.8           129.6 
         3085.1           144.1 
         3085.4           157.1 
         3085.7           167.5 
           3086             175 
         3086.3           180.2 
         3086.6           185.4 
         3086.9           193.4 
         3087.2           205.9 
         3087.5             222 
         3087.8           238.4 
         3088.1             250 
         3088.4           251.9 
         3088.7           241.5 
           3089           219.6 
         3089.3           189.9 
         3089.6           157.7 
         3089.9             128 
         3090.2           103.4 
         3090.5            84.5 
         3090.8           70.15 
         3091.1           58.66 
         3091.4           48.84 
         3091.7           40.27 
           3092           33.31 
         3092.3           28.75 
         3092.6           27.45 
         3092.9           29.99 
         3093.2           36.36 
         3093.5           45.86 
         3093.8            57.2 
         3094.1           68.81 
         3094.4           79.17 
         3094.7           87.12 
           3095           92.09 
         3095.3           94.36 
         3095.6           95.22 
         3095.9           96.98 
         3096.2           102.5 
         3096.5           113.9 
         3096.8           131.6 
         3097.1           152.8 
         3097.4           172.3 
         3097.7           183.9 
           3098           183.3 
         3098.3           169.9 
         3098.6             147 
         3098.9           120.4 
         3099.2           96.18 
         3099.5            78.5 
         3099.8           68.79 
         3100.1           65.85 
         3100.4           66.93 
         3100.7           69.33 
           3101            71.9 
         3101.3           82.77 
         3101.6           96.65 
         3101.9           118.9 
         3102.2           149.3 
         3102.5           185.8 
         3102.8           224.9 
         3103.1           261.9 
         3103.4           292.6 
         3103.7           312.3 
           3104           317.9 
         3104.3           307.7 
         3104.6           283.6 
         3104.9           250.1 
         3105.2           214.3 
         3105.5           183.4 
         3105.8           162.6 
         3106.1           154.1 
         3106.4           157.1 
         3106.7           168.7 
           3107           185.8 
         3107.3           204.1 
         3107.6           219.8 
         3107.9           230.1 
         3108.2           235.1 
         3108.5           238.6 
         3108.8           247.6 
         3109.1           268.7 
         3109.4           304.7 
         3109.7           352.8 
           3110           404.5 
         3110.3           448.5 
         3110.6           474.2 
         3110.9           476.3 
         3111.2           455.6 
         3111.5             419 
         3111.8           376.3 
         3112.1           336.9 
         3112.4           307.6 
         3112.7           292.2 
           3113             293 
         3113.3           311.1 
         3113.6             347 
         3113.9           399.5 
         3114.2           464.5 
         3114.5           534.2 
         3114.8           597.1 
         3115.1           640.2 
         3115.4             653 
         3115.7             631 
           3116           578.5 
         3116.3           509.2 
         3116.6           442.3 
         3116.9           396.7 
         3117.2           385.3 
         3117.5           410.2 
         3117.8           462.5 
         3118.1           525.9 
         3118.4           582.9 
         3118.7           621.5 
           3119           639.3 
         3119.3           641.7 
         3119.6             638 
         3119.9           633.5 
         3120.2           626.5 
         3120.5           608.5 
         3120.8           571.3 
         3121.1           512.7 
         3121.4           440.2 
         3121.7           368.7 
           3122           313.3 
         3122.3           283.7 
         3122.6           280.4 
         3122.9           296.9 
         3123.2           323.4 
         3123.5           351.8 
         3123.8           377.6 
         3124.1           400.2 
         3124.4           420.7 
         3124.7           440.5 
           3125           460.1 
         3125.3             479 
         3125.6           497.3 
         3125.9             516 
         3126.2           534.6 
         3126.5           549.9 
         3126.8             555 
         3127.1           543.4 
         3127.4           513.3 
         3127.7           469.8 
           3128           422.9 
         3128.3           382.6 
         3128.6           354.8 
         3128.9           341.3 
         3129.2           341.4 
         3129.5           354.1 
         3129.8           378.8 
         3130.1           414.9 
         3130.4           459.6 
         3130.7           507.5 
           3131           550.5 
         3131.3           578.5 
         3131.6           583.1 
         3131.9           560.2 
         3132.2           512.7 
         3132.5           449.4 
         3132.8           382.5 
         3133.1           324.6 
         3133.4           285.9 
         3133.7           272.6 
           3134           285.7 
         3134.3           319.1 
         3134.6             361 
         3134.9           396.7 
         3135.2           414.7 
         3135.5           411.7 
         3135.8           393.7 
         3136.1           373.7 
         3136.4             366 
         3136.7           382.1 
           3137           426.7 
         3137.3             496 
         3137.6           578.1 
         3137.9           655.1 
         3138.2           709.7 
         3138.5           730.9 
         3138.8           718.4 
         3139.1           680.8 
         3139.4             632 
         3139.7           585.9 
           3140           552.6 
         3140.3           536.9 
         3140.6             537 
         3140.9           547.4 
         3141.2           561.2 
         3141.5           572.6 
         3141.8           578.1 
         3142.1             575 
         3142.4           561.6 
         3142.7           538.8 
           3143           510.8 
         3143.3           485.7 
         3143.6           470.3 
         3143.9           466.5 
         3144.2           469.8 
         3144.5           472.7 
         3144.8           470.2 
         3145.1           461.5 
         3145.4           448.1 
         3145.7           431.8 
           3146           414.4 
         3146.3             400 
         3146.6           396.9 
         3146.9           415.7 
         3147.2             464 
         3147.5           541.3 
         3147.8           636.5 
         3148.1           729.8 
         3148.4           798.8 
         3148.7           826.4 
           3149           806.2 
         3149.3           745.2 
         3149.6             660 
         3149.9           570.3 
         3150.2           493.2 
         3150.5           439.4 
         3150.8           412.8 
         3151.1           411.8 
         3151.4           431.3 
         3151.7           464.5 
           3152           503.6 
         3152.3             541 
         3152.6           569.3 
         3152.9             584 
         3153.2           584.8 
         3153.5           577.6 
         3153.8           574.1 
         3154.1           586.5 
         3154.4           621.3 
         3154.7           675.2 
           3155             737 
         3155.3           793.9 
         3155.6           838.8 
         3155.9           872.9 
         3156.2           902.7 
         3156.5           935.4 
         3156.8           974.1 
         3157.1            1017 
         3157.4            1060 
         3157.7            1097 
           3158            1129 
         3158.3            1155 
         3158.6            1176 
         3158.9            1187 
         3159.2            1180 
         3159.5            1149 
         3159.8            1099 
         3160.1            1045 
         3160.4            1009 
         3160.7            1004 
           3161            1031 
         3161.3            1073 
         3161.6            1113 
         3161.9            1137 
         3162.2            1142 
         3162.5            1130 
         3162.8            1105 
         3163.1            1068 
         3163.4            1023 
         3163.7           979.8 
           3164           947.3 
         3164.3           934.8 
         3164.6             946 
         3164.9             982 
         3165.2            1045 
         3165.5            1140 
         3165.8            1271 
         3166.1            1438 
         3166.4            1627 
         3166.7            1815 
           3167            1970 
         3167.3            2058 
         3167.6            2061 
         3167.9            1981 
         3168.2            1851 
         3168.5            1718 
         3168.8            1628 
         3169.1            1605 
         3169.4            1639 
         3169.7            1697 
           3170            1740 
         3170.3            1745 
         3170.6            1712 
         3170.9            1661 
         3171.2            1620 
         3171.5            1604 
         3171.8            1610 
         3172.1            1623 
         3172.4            1629 
         3172.7            1626 
           3173            1625 
         3173.3            1648 
         3173.6            1709 
         3173.9            1807 
         3174.2            1923 
         3174.5            2034 
         3174.8            2122 
         3175.1            2177 
         3175.4            2200 
         3175.7            2195 
           3176            2163 
         3176.3            2104 
         3176.6            2024 
         3176.9            1936 
         3177.2            1860 
         3177.5            1816 
         3177.8            1815 
         3178.1            1846 
