# Granada HRES Library
# atmosphere = Spectrum  (atmosphere model used)
# feh = -10  (value for [Fe/H] for the model.)
# logg = 3.5 log(cm/s2) (value for Log(G) for the model.)
# teff = 4750 K (value for the effective temperature for the model. Temperatures are given in K)
#
# column 1: WAVELENGTH (ANGSTROM), Wavelength in Angstrom
# column 2: FLUX (ERG/CM2/S/A), Flux in erg/cm2/s/A
         3000.2           60380 
         3000.5           62300 
         3000.8           64920 
         3001.1           68480 
         3001.4           73090 
         3001.7           79480 
           3002           88550 
         3002.3          101700 
         3002.6          120500 
         3002.9          146600 
         3003.2          180700 
         3003.5          222400 
         3003.8          269900 
         3004.1          319700 
         3004.4          367300 
         3004.7          407600 
           3005          436200 
         3005.3          449900 
         3005.6          447200 
         3005.9          428500 
         3006.2          396300 
         3006.5          354500 
         3006.8          308100 
         3007.1          262700 
         3007.4          223400 
         3007.7          194400 
           3008          178900 
         3008.3          178200 
         3008.6          192900 
         3008.9          221800 
         3009.2          262400 
         3009.5          310600 
         3009.8          360700 
         3010.1          406600 
         3010.4          442300 
         3010.7          464500 
           3011          472200 
         3011.3          468100 
         3011.6          457100 
         3011.9          444600 
         3012.2          434400 
         3012.5          428400 
         3012.8          425900 
         3013.1          425000 
         3013.4          423400 
         3013.7          419700 
           3014          413600 
         3014.3          405400 
         3014.6          395800 
         3014.9          385300 
         3015.2          373800 
         3015.5          360500 
         3015.8          344500 
         3016.1          325100 
         3016.4          302100 
         3016.7          275800 
           3017          247500 
         3017.3          218500 
         3017.6          190300 
         3017.9          164000 
         3018.2          140300 
         3018.5          119200 
         3018.8          100900 
         3019.1           85000 
         3019.4           71620 
         3019.7           60920 
           3020           53260 
         3020.3           49060 
         3020.6           48840 
         3020.9           53150 
         3021.2           62110 
         3021.5           75470 
         3021.8           92540 
         3022.1          112100 
         3022.4          132400 
         3022.7          151800 
           3023          168500 
         3023.3          181200 
         3023.6          189200 
         3023.9          192500 
         3024.2          191900 
         3024.5          188800 
         3024.8          186000 
         3025.1          186300 
         3025.4          193400 
         3025.7          210700 
           3026          240100 
         3026.3          281700 
         3026.6          333400 
         3026.9          390600 
         3027.2          447800 
         3027.5          499000 
         3027.8          539400 
         3028.1          565600 
         3028.4          576400 
         3028.7          572500 
           3029          556400 
         3029.3          531400 
         3029.6          501600 
         3029.9          471100 
         3030.2          443900 
         3030.5          423400 
         3030.8          412800 
         3031.1          414200 
         3031.4          428300 
         3031.7          454400 
           3032          489600 
         3032.3          530000 
         3032.6          571300 
         3032.9          610000 
         3033.2          644100 
         3033.5          672400 
         3033.8          694800 
         3034.1          710500 
         3034.4          717900 
         3034.7          714300 
           3035          696600 
         3035.3          662700 
         3035.6          612200 
         3035.9          547900 
         3036.2          475400 
         3036.5          402100 
         3036.8          336300 
         3037.1          285200 
         3037.4          253800 
         3037.7          243500 
           3038          253000 
         3038.3          277700 
         3038.6          311200 
         3038.9          346400 
         3039.2          377200 
         3039.5          399000 
         3039.8          409200 
         3040.1          408000 
         3040.4          397400 
         3040.7          380900 
           3041          362900 
         3041.3          347900 
         3041.6          340200 
         3041.9          342900 
         3042.2          357500 
         3042.5          383400 
         3042.8          417500 
         3043.1          455300 
         3043.4          491900 
         3043.7          522800 
           3044          544800 
         3044.3          556200 
         3044.6          556400 
         3044.9          545500 
         3045.2          523900 
         3045.5          492400 
         3045.8          452300 
         3046.1          406100 
         3046.4          357700 
         3046.7          312000 
           3047          274400 
         3047.3          250000 
         3047.6          241800 
         3047.9          250400 
         3048.2          273100 
         3048.5          304900 
         3048.8          339300 
         3049.1          370300 
         3049.4          394000 
         3049.7          410400 
           3050          422900 
         3050.3          437100 
         3050.6          458500 
         3050.9          490400 
         3051.2          531700 
         3051.5          576600 
         3051.8          616700 
         3052.1          643300 
         3052.4          650000 
         3052.7          635100 
           3053          602100 
         3053.3          558600 
         3053.6          514200 
         3053.9          477500 
         3054.2          454000 
         3054.5          445000 
         3054.8          447200 
         3055.1          454400 
         3055.4          459200 
         3055.7          454600 
           3056          436700 
         3056.3          404800 
         3056.6          361300 
         3056.9          311500 
         3057.2          261500 
         3057.5          216800 
         3057.8          182100 
         3058.1          160200 
         3058.4          152900 
         3058.7          160900 
           3059          184400 
         3059.3          222800 
         3059.6          274300 
         3059.9          336000 
         3060.2          403800 
         3060.5          472000 
         3060.8          534900 
         3061.1          586800 
         3061.4          622900 
         3061.7          640000 
           3062          636600 
         3062.3          613200 
         3062.6          573000 
         3062.9          520900 
         3063.2          463600 
         3063.5          408200 
         3063.8          361100 
         3064.1          326400 
         3064.4          304800 
         3064.7          294200 
           3065          289600 
         3065.3          285900 
         3065.6          278800 
         3065.9          266700 
         3066.2          250900 
         3066.5          235000 
         3066.8          224100 
         3067.1          223200 
         3067.4          235200 
         3067.7          261600 
           3068          300600 
         3068.3          348500 
         3068.6          401100 
         3068.9          453500 
         3069.2          501900 
         3069.5          543900 
         3069.8          578800 
         3070.1          606400 
         3070.4          627200 
         3070.7          641200 
           3071          648500 
         3071.3          649400 
         3071.6          645200 
         3071.9          638100 
         3072.2          631200 
         3072.5          627100 
         3072.8          626900 
         3073.1          629200 
         3073.4          631100 
         3073.7          628700 
           3074          619200 
         3074.3          602100 
         3074.6          580100 
         3074.9          558200 
         3075.2          542800 
         3075.5          538500 
         3075.8          547800 
         3076.1          568900 
         3076.4          596400 
         3076.7          623800 
           3077          644800 
         3077.3          655800 
         3077.6          656400 
         3077.9          649100 
         3078.2          637700 
         3078.5          626000 
         3078.8          615600 
         3079.1          606600 
         3079.4          596600 
         3079.7          582700 
           3080          562900 
         3080.3          536800 
         3080.6          506200 
         3080.9          474100 
         3081.2          444600 
         3081.5          420900 
         3081.8          405900 
         3082.1          400800 
         3082.4          405100 
         3082.7          418400 
           3083          439900 
         3083.3          469600 
         3083.6          507500 
         3083.9          552800 
         3084.2          603300 
         3084.5          654800 
         3084.8          701700 
         3085.1          737300 
         3085.4          755900 
         3085.7          753700 
           3086          730500 
         3086.3          690100 
         3086.6          639000 
         3086.9          585800 
         3087.2          538500 
         3087.5          503100 
         3087.8          481400 
         3088.1          471700 
         3088.4          469100 
         3088.7          467800 
           3089          462500 
         3089.3          450200 
         3089.6          430500 
         3089.9          405300 
         3090.2          377900 
         3090.5          351000 
         3090.8          326900 
         3091.1          306900 
         3091.4          291200 
         3091.7          279800 
           3092          272700 
         3092.3          269800 
         3092.6          272200 
         3092.9          280500 
         3093.2          295100 
         3093.5          315200 
         3093.8          338900 
         3094.1          363100 
         3094.4          384600 
         3094.7          400000 
           3095          407300 
         3095.3          405600 
         3095.6          396100 
         3095.9          381400 
         3096.2          365200 
         3096.5          351200 
         3096.8          341600 
         3097.1          336700 
         3097.4          334400 
         3097.7          331200 
           3098          323100 
         3098.3          307300 
         3098.6          283200 
         3098.9          252500 
         3099.2          218300 
         3099.5          184800 
         3099.8          156200 
         3100.1          135700 
         3100.4          125800 
         3100.7          127900 
           3101          143300 
         3101.3          172400 
         3101.6          214800 
         3101.9          268900 
         3102.2          331600 
         3102.5          397900 
         3102.8          462100 
         3103.1          518500 
         3103.4          562100 
         3103.7          589700 
           3104          600500 
         3104.3          596500 
         3104.6          581500 
         3104.9          561200 
         3105.2          542100 
         3105.5          529700 
         3105.8          528300 
         3106.1          539200 
         3106.4          561300 
         3106.7          591500 
           3107          625500 
         3107.3          659300 
         3107.6          688900 
         3107.9          711800 
         3108.2          726100 
         3108.5          731700 
         3108.8          729700 
         3109.1          722800 
         3109.4          714700 
         3109.7          709700 
           3110          711500 
         3110.3          721800 
         3110.6          739800 
         3110.9          762300 
         3111.2          784800 
         3111.5          802400 
         3111.8          810500 
         3112.1          806600 
         3112.4          790600 
         3112.7          764700 
           3113          733000 
         3113.3          701400 
         3113.6          676400 
         3113.9          663000 
         3114.2          664500 
         3114.5          680000 
         3114.8          704900 
         3115.1          731400 
         3115.4          751400 
         3115.7          757200 
           3116          744800 
         3116.3          714500 
         3116.6          670600 
         3116.9          620200 
         3117.2          570700 
         3117.5          527700 
         3117.8          494700 
         3118.1          472600 
         3118.4          460200 
         3118.7          455600 
           3119          456500 
         3119.3          461100 
         3119.6          468300 
         3119.9          476400 
         3120.2          483200 
         3120.5          486200 
         3120.8          483000 
         3121.1          472100 
         3121.4          454600 
         3121.7          434100 
           3122          415300 
         3122.3          403000 
         3122.6          400800 
         3122.9          409400 
         3123.2          426900 
         3123.5          449400 
         3123.8          471800 
         3124.1          489300 
         3124.4          499500 
         3124.7          502100 
           3125          499000 
         3125.3          493800 
         3125.6          489500 
         3125.9          488800 
         3126.2          491700 
         3126.5          497000 
         3126.8          502500 
         3127.1          506300 
         3127.4          507000 
         3127.7          504800 
           3128          501200 
         3128.3          498100 
         3128.6          497300 
         3128.9          499600 
         3129.2          504400 
         3129.5          510400 
         3129.8          516600 
         3130.1          522100 
         3130.4          526600 
         3130.7          529900 
           3131          531200 
         3131.3          529700 
         3131.6          524100 
         3131.9          514000 
         3132.2          499300 
         3132.5          481700 
         3132.8          463600 
         3133.1          448500 
         3133.4          440400 
         3133.7          442900 
           3134          458000 
         3134.3          485500 
         3134.6          521900 
         3134.9          561600 
         3135.2          598000 
         3135.5          625800 
         3135.8          641700 
         3136.1          646000 
         3136.4          641200 
         3136.7          630200 
           3137          615900 
         3137.3          600500 
         3137.6          584700 
         3137.9          570000 
         3138.2          557900 
         3138.5          550400 
         3138.8          549300 
         3139.1          555600 
         3139.4          569300 
         3139.7          589000 
           3140          612100 
         3140.3          635600 
         3140.6          656000 
         3140.9          669800 
         3141.2          673800 
         3141.5          665500 
         3141.8          643400 
         3142.1          607300 
         3142.4          558300 
         3142.7          499700 
           3143          435800 
         3143.3          372300 
         3143.6          314900 
         3143.9          269000 
         3144.2          237800 
         3144.5          223000 
         3144.8          223700 
         3145.1          237100 
         3145.4          259400 
         3145.7          286000 
           3146          313200 
         3146.3          338700 
         3146.6          362700 
         3146.9          386700 
         3147.2          412700 
         3147.5          442800 
         3147.8          477700 
         3148.1          515500 
         3148.4          553400 
         3148.7          587900 
           3149          616100 
         3149.3          636900 
         3149.6          650500 
         3149.9          658500 
         3150.2          662000 
         3150.5          661200 
         3150.8          655700 
         3151.1          645500 
         3151.4          631200 
         3151.7          615500 
           3152          601900 
         3152.3          594100 
         3152.6          594000 
         3152.9          601300 
         3153.2          613200 
         3153.5          626400 
         3153.8          637100 
         3154.1          643200 
         3154.4          643700 
         3154.7          638600 
           3155          627700 
         3155.3          610100 
         3155.6          584300 
         3155.9          550100 
         3156.2          507600 
         3156.5          459400 
         3156.8          409500 
         3157.1          362700 
         3157.4          323600 
         3157.7          294800 
           3158          277600 
         3158.3          271400 
         3158.6          273400 
         3158.9          280100 
         3159.2          288700 
         3159.5          295900 
         3159.8          300700 
         3160.1          302500 
         3160.4          302900 
         3160.7          304300 
           3161          309300 
         3161.3          320200 
         3161.6          338100 
         3161.9          362200 
         3162.2          390100 
         3162.5          418300 
         3162.8          442900 
         3163.1          460400 
         3163.4          468600 
         3163.7          467900 
           3164          460500 
         3164.3          450400 
         3164.6          442000 
         3164.9          439000 
         3165.2          443500 
         3165.5          455700 
         3165.8          473900 
         3166.1          495000 
         3166.4          515600 
         3166.7          532000 
           3167          541000 
         3167.3          541400 
         3167.6          532900 
         3167.9          518000 
         3168.2          500800 
         3168.5          486600 
         3168.8          480500 
         3169.1          486200 
         3169.4          504600 
         3169.7          534100 
           3170          570700 
         3170.3          609700 
         3170.6          646800 
         3170.9          679200 
         3171.2          705800 
         3171.5          726100 
         3171.8          739800 
         3172.1          746300 
         3172.4          744900 
         3172.7          735000 
           3173          717600 
         3173.3          694700 
         3173.6          669700 
         3173.9          647100 
         3174.2          631000 
         3174.5          625200 
         3174.8          631600 
         3175.1          650800 
         3175.4          680300 
         3175.7          715300 
           3176          749600 
         3176.3          776600 
         3176.6          791200 
         3176.9          791100 
         3177.2          777400 
         3177.5          752300 
         3177.8          719700 
         3178.1          682200 
