# Granada HRES Library
# atmosphere = Phoenix  (atmosphere model used)
# feh = -5  (value for [Fe/H] for the model.)
# logg = 0.5 log(cm/s2) (value for Log(G) for the model.)
# teff = 3000 K (value for the effective temperature for the model. Temperatures are given in K)
#
# column 1: WAVELENGTH (ANGSTROM), Wavelength in Angstrom
# column 2: FLUX (ERG/CM2/S/A), Flux in erg/cm2/s/A
         3000.2           7.143 
         3000.5           5.645 
         3000.8           4.662 
         3001.1           4.132 
         3001.4           3.912 
         3001.7           3.843 
           3002           3.838 
         3002.3           3.933 
         3002.6           4.286 
         3002.9           5.112 
         3003.2           6.592 
         3003.5           8.792 
         3003.8           11.62 
         3004.1           14.83 
         3004.4           18.07 
         3004.7           20.97 
           3005           23.19 
         3005.3           24.47 
         3005.6           24.62 
         3005.9           23.61 
         3006.2           21.59 
         3006.5           18.87 
         3006.8           15.92 
         3007.1           13.14 
         3007.4            10.9 
         3007.7             9.5 
           3008           9.062 
         3008.3           9.672 
         3008.6           11.38 
         3008.9           14.27 
         3009.2           18.32 
         3009.5           23.32 
         3009.8           28.66 
         3010.1           33.42 
         3010.4           36.61 
         3010.7           37.67 
           3011           36.69 
         3011.3           34.44 
         3011.6           31.92 
         3011.9           29.95 
         3012.2           28.88 
         3012.5           28.61 
         3012.8           28.73 
         3013.1           28.89 
         3013.4           28.91 
         3013.7           28.74 
           3014           28.39 
         3014.3            27.9 
         3014.6           27.31 
         3014.9           26.72 
         3015.2           26.19 
         3015.5           25.65 
         3015.8           24.98 
         3016.1           24.05 
         3016.4           22.77 
         3016.7           21.14 
           3017            19.3 
         3017.3            17.4 
         3017.6           15.64 
         3017.9           14.09 
         3018.2           12.68 
         3018.5           11.24 
         3018.8           9.659 
         3019.1           7.954 
         3019.4           6.238 
         3019.7           4.674 
           3020            3.41 
         3020.3           2.552 
         3020.6           2.182 
         3020.9           2.348 
         3021.2           3.074 
         3021.5           4.326 
         3021.8           5.993 
         3022.1           7.868 
         3022.4           9.667 
         3022.7           11.08 
           3023           11.87 
         3023.3           11.94 
         3023.6           11.39 
         3023.9           10.49 
         3024.2           9.514 
         3024.5           8.678 
         3024.8           8.062 
         3025.1           7.684 
         3025.4           7.593 
         3025.7           7.879 
           3026           8.606 
         3026.3           9.716 
         3026.6              11 
         3026.9            12.2 
         3027.2           13.16 
         3027.5           13.97 
         3027.8           14.97 
         3028.1           16.56 
         3028.4           19.01 
         3028.7           22.26 
           3029           25.86 
         3029.3           29.12 
         3029.6            31.4 
         3029.9           32.42 
         3030.2           32.42 
         3030.5            32.1 
         3030.8           32.38 
         3031.1           34.01 
         3031.4           37.14 
         3031.7           41.21 
           3032           44.95 
         3032.3           46.94 
         3032.6           46.21 
         3032.9           42.73 
         3033.2           37.43 
         3033.5           31.78 
         3033.8           27.22 
         3034.1           24.63 
         3034.4           24.14 
         3034.7           25.13 
           3035           26.58 
         3035.3           27.48 
         3035.6           27.13 
         3035.9           25.36 
         3036.2           22.43 
         3036.5           18.97 
         3036.8           15.74 
         3037.1           13.51 
         3037.4            12.8 
         3037.7           13.82 
           3038           16.37 
         3038.3           19.97 
         3038.6           24.06 
         3038.9           28.15 
         3039.2           31.88 
         3039.5           34.87 
         3039.8           36.75 
         3040.1           37.15 
         3040.4           35.97 
         3040.7           33.57 
           3041           30.73 
         3041.3           28.44 
         3041.6           27.51 
         3041.9           28.26 
         3042.2           30.34 
         3042.5           32.91 
         3042.8           34.99 
         3043.1           35.93 
         3043.4            35.6 
         3043.7           34.41 
           3044           32.99 
         3044.3           31.91 
         3044.6           31.48 
         3044.9           31.64 
         3045.2           32.07 
         3045.5           32.23 
         3045.8           31.53 
         3046.1           29.55 
         3046.4           26.24 
         3046.7           22.01 
           3047           17.58 
         3047.3           13.81 
         3047.6           11.39 
         3047.9           10.74 
         3048.2           11.93 
         3048.5           14.65 
         3048.8           18.26 
         3049.1           21.88 
         3049.4           24.55 
         3049.7            25.6 
           3050           24.96 
         3050.3           23.15 
         3050.6           21.06 
         3050.9           19.58 
         3051.2           19.17 
         3051.5           19.87 
         3051.8           21.27 
         3052.1           22.79 
         3052.4           23.78 
         3052.7           23.82 
           3053            22.8 
         3053.3              21 
         3053.6           18.99 
         3053.9           17.38 
         3054.2           16.59 
         3054.5           16.72 
         3054.8           17.52 
         3055.1           18.51 
         3055.4           19.22 
         3055.7           19.34 
           3056           18.83 
         3056.3           17.85 
         3056.6           16.67 
         3056.9           15.51 
         3057.2           14.49 
         3057.5           13.62 
         3057.8            12.8 
         3058.1              12 
         3058.4           11.28 
         3058.7           10.91 
           3059           11.22 
         3059.3           12.53 
         3059.6           14.96 
         3059.9           18.37 
         3060.2           22.43 
         3060.5           26.69 
         3060.8           30.77 
         3061.1           34.35 
         3061.4           37.17 
         3061.7           38.94 
           3062           39.28 
         3062.3           37.84 
         3062.6           34.48 
         3062.9           29.54 
         3063.2           23.85 
         3063.5           18.47 
         3063.8           14.27 
         3064.1           11.68 
         3064.4           10.58 
         3064.7           10.51 
           3065           11.02 
         3065.3           11.87 
         3065.6           13.08 
         3065.9           14.79 
         3066.2           17.04 
         3066.5           19.57 
         3066.8           21.86 
         3067.1           23.44 
         3067.4           24.07 
         3067.7           23.88 
           3068            23.2 
         3068.3           22.35 
         3068.6            21.4 
         3068.9           20.23 
         3069.2           18.72 
         3069.5           16.98 
         3069.8           15.42 
         3070.1           14.65 
         3070.4           15.19 
         3070.7            17.2 
           3071            20.4 
         3071.3           24.18 
         3071.6           27.93 
         3071.9            31.3 
         3072.2            34.3 
         3072.5           37.19 
         3072.8            40.2 
         3073.1            43.4 
         3073.4           46.56 
         3073.7            49.2 
           3074           50.78 
         3074.3           50.98 
         3074.6           50.02 
         3074.9           48.75 
         3075.2           48.31 
         3075.5           49.65 
         3075.8           52.94 
         3076.1           57.35 
         3076.4           61.39 
         3076.7           63.61 
           3077           63.29 
         3077.3           60.67 
         3077.6           56.67 
         3077.9           52.37 
         3078.2           48.54 
         3078.5           45.34 
         3078.8           42.43 
         3079.1           39.24 
         3079.4           35.36 
         3079.7           30.79 
           3080           25.84 
         3080.3           21.01 
         3080.6           16.68 
         3080.9           13.11 
         3081.2            10.4 
         3081.5           8.607 
         3081.8           7.725 
         3082.1           7.667 
         3082.4           8.229 
         3082.7           9.156 
           3083           10.26 
         3083.3           11.51 
         3083.6           13.04 
         3083.9           15.04 
         3084.2           17.62 
         3084.5           20.81 
         3084.8           24.52 
         3085.1           28.48 
         3085.4           32.32 
         3085.7           35.63 
           3086           38.29 
         3086.3           40.71 
         3086.6           43.78 
         3086.9           48.41 
         3087.2           55.01 
         3087.5           63.09 
         3087.8           71.13 
         3088.1           77.08 
         3088.4           79.01 
         3088.7           75.89 
           3089           67.99 
         3089.3           56.74 
         3089.6           44.19 
         3089.9           32.31 
         3090.2           22.47 
         3090.5           15.25 
         3090.8           10.51 
         3091.1           7.706 
         3091.4           6.199 
         3091.7           5.469 
           3092            5.25 
         3092.3           5.543 
         3092.6            6.53 
         3092.9            8.43 
         3093.2           11.35 
         3093.5           15.18 
         3093.8           19.59 
         3094.1           24.13 
         3094.4           28.25 
         3094.7            31.4 
           3095           33.13 
         3095.3            33.3 
         3095.6           32.35 
         3095.9           31.47 
         3096.2           32.39 
         3096.5           36.71 
         3096.8           45.08 
         3097.1           56.46 
         3097.4           68.13 
         3097.7           76.57 
           3098           78.89 
         3098.3           74.12 
         3098.6           63.61 
         3098.9           50.36 
         3099.2           37.69 
         3099.5           27.99 
         3099.8           22.14 
         3100.1           19.65 
         3100.4           19.23 
         3100.7           19.63 
           3101           20.21 
         3101.3           23.51 
         3101.6           28.13 
         3101.9           35.59 
         3102.2           45.52 
         3102.5           56.75 
         3102.8           67.72 
         3103.1           77.12 
         3103.4           84.24 
         3103.7           88.82 
           3104           90.68 
         3104.3           89.43 
         3104.6           84.66 
         3104.9           76.55 
         3105.2           66.13 
         3105.5           55.12 
         3105.8           45.25 
         3106.1           37.76 
         3106.4           33.25 
         3106.7           31.84 
           3107           33.19 
         3107.3           36.53 
         3107.6           40.68 
         3107.9           44.27 
         3108.2           46.29 
         3108.5           46.46 
         3108.8           45.43 
         3109.1            44.5 
         3109.4           45.17 
         3109.7           48.58 
           3110           55.05 
         3110.3           63.75 
         3110.6           72.82 
         3110.9           79.76 
         3111.2           82.39 
         3111.5            79.7 
         3111.8           72.31 
         3112.1           62.18 
         3112.4           51.73 
         3112.7           42.99 
           3113           37.26 
         3113.3           35.07 
         3113.6           36.57 
         3113.9           41.69 
         3114.2           50.17 
         3114.5           61.21 
         3114.8           73.28 
         3115.1           84.13 
         3115.4           91.27 
         3115.7           92.86 
           3116           88.57 
         3116.3           80.19 
         3116.6           71.15 
         3116.9           65.38 
         3117.2           65.78 
         3117.5            73.1 
         3117.8           85.76 
         3118.1           100.6 
         3118.4           113.8 
         3118.7           122.9 
           3119           126.6 
         3119.3           125.7 
         3119.6             122 
         3119.9           117.5 
         3120.2           112.8 
         3120.5           107.1 
         3120.8           98.87 
         3121.1           87.56 
         3121.4           74.33 
         3121.7           62.08 
           3122           54.13 
         3122.3           52.55 
         3122.6           57.09 
         3122.9           65.17 
         3123.2           73.14 
         3123.5           77.95 
         3123.8           78.47 
         3124.1           75.79 
         3124.4           72.27 
         3124.7           70.18 
           3125           70.35 
         3125.3           71.92 
         3125.6           73.14 
         3125.9           72.56 
         3126.2           69.93 
         3126.5           65.97 
         3126.8           61.61 
         3127.1           57.32 
         3127.4           53.08 
         3127.7           48.74 
           3128           44.36 
         3128.3           40.31 
         3128.6           37.09 
         3128.9           35.24 
         3129.2           35.17 
         3129.5           37.11 
         3129.8           41.15 
         3130.1           47.47 
         3130.4           56.22 
         3130.7           67.17 
           3131           79.13 
         3131.3            89.9 
         3131.6           96.85 
         3131.9           98.13 
         3132.2           93.74 
         3132.5           85.48 
         3132.8           75.99 
         3133.1           67.65 
         3133.4           62.03 
         3133.7              60 
           3134           61.69 
         3134.3           66.28 
         3134.6           71.84 
         3134.9           75.95 
         3135.2           76.69 
         3135.5            73.9 
         3135.8            69.1 
         3136.1            64.8 
         3136.4           63.34 
         3136.7            66.1 
           3137           73.06 
         3137.3           82.91 
         3137.6           93.34 
         3137.9           101.8 
         3138.2           106.5 
         3138.5           107.2 
         3138.8           105.6 
         3139.1           103.9 
         3139.4           104.6 
         3139.7           108.8 
           3140           116.3 
         3140.3           125.6 
         3140.6             134 
         3140.9           139.7 
         3141.2           141.6 
         3141.5           140.7 
         3141.8           138.5 
         3142.1           135.9 
         3142.4           132.4 
         3142.7             127 
           3143           119.2 
         3143.3           110.2 
         3143.6           101.8 
         3143.9              95 
         3144.2           89.53 
         3144.5           84.38 
         3144.8           78.71 
         3145.1           72.38 
         3145.4           65.97 
         3145.7           60.33 
           3146           56.38 
         3146.3           55.07 
         3146.6           57.25 
         3146.9           63.53 
         3147.2           74.07 
         3147.5           88.52 
         3147.8           105.8 
         3148.1           124.1 
         3148.4           140.3 
         3148.7           151.4 
           3149           155.1 
         3149.3           151.5 
         3149.6           142.8 
         3149.9           131.8 
         3150.2           120.2 
         3150.5           108.6 
         3150.8           96.89 
         3151.1           84.98 
         3151.4            73.7 
         3151.7           64.42 
           3152           58.25 
         3152.3           55.48 
         3152.6           55.52 
         3152.9           57.36 
         3153.2           60.23 
         3153.5           64.14 
         3153.8           69.53 
         3154.1           76.58 
         3154.4            84.4 
         3154.7           90.96 
           3155           94.07 
         3155.3            92.8 
         3155.6           88.07 
         3155.9           82.33 
         3156.2           78.19 
         3156.5           77.33 
         3156.8           79.91 
         3157.1           84.97 
         3157.4           91.03 
         3157.7           96.87 
           3158           101.8 
         3158.3           105.8 
         3158.6           108.6 
         3158.9           109.8 
         3159.2           108.7 
         3159.5           105.1 
         3159.8           100.1 
         3160.1           95.97 
         3160.4           95.21 
         3160.7           99.11 
           3161           106.8 
         3161.3           115.8 
         3161.6           123.8 
         3161.9           129.8 
         3162.2           134.6 
         3162.5           139.6 
         3162.8           145.3 
         3163.1           151.4 
         3163.4           157.1 
         3163.7           162.3 
           3164           166.6 
         3164.3           169.8 
         3164.6             171 
         3164.9             170 
         3165.2           167.4 
         3165.5           165.7 
         3165.8           167.6 
         3166.1           175.8 
         3166.4           191.7 
         3166.7           213.8 
           3167           237.8 
         3167.3             258 
         3167.6           268.5 
         3167.9           266.4 
         3168.2           253.6 
         3168.5           236.1 
         3168.8           220.8 
         3169.1           211.7 
         3169.4           208.2 
         3169.7           206.3 
           3170           201.7 
         3170.3           192.6 
         3170.6           180.5 
         3170.9           169.3 
         3171.2           162.1 
         3171.5           160.2 
         3171.8           161.4 
         3172.1             163 
         3172.4           162.3 
         3172.7             159 
           3173             155 
         3173.3           153.8 
         3173.6           158.5 
         3173.9             170 
         3174.2           187.3 
         3174.5           207.3 
         3174.8           226.5 
         3175.1           241.6 
         3175.4           250.1 
         3175.7           250.3 
           3176             242 
         3176.3           226.9 
         3176.6             208 
         3176.9           189.6 
         3177.2             176 
         3177.5           170.5 
         3177.8           173.4 
         3178.1           182.5 
