# Granada HRES Library
# atmosphere = Phoenix  (atmosphere model used)
# feh = 0  (value for [Fe/H] for the model.)
# logg = 0.5 log(cm/s2) (value for Log(G) for the model.)
# teff = 3500 K (value for the effective temperature for the model. Temperatures are given in K)
#
# column 1: WAVELENGTH (ANGSTROM), Wavelength in Angstrom
# column 2: FLUX (ERG/CM2/S/A), Flux in erg/cm2/s/A
         3000.2           47.82 
         3000.5           41.78 
         3000.8           37.91 
         3001.1           35.94 
         3001.4           35.11 
         3001.7           34.62 
           3002              34 
         3002.3           33.48 
         3002.6            33.9 
         3002.9           36.36 
         3003.2           41.76 
         3003.5           50.45 
         3003.8           62.07 
         3004.1           75.59 
         3004.4           89.67 
         3004.7           102.8 
           3005           113.5 
         3005.3           120.6 
         3005.6           123.2 
         3005.9           120.9 
         3006.2           114.2 
         3006.5           104.1 
         3006.8           92.47 
         3007.1           81.27 
         3007.4           72.37 
         3007.7           67.18 
           3008           66.44 
         3008.3           70.17 
         3008.6           77.87 
         3008.9           88.84 
         3009.2           102.4 
         3009.5           117.5 
         3009.8           132.1 
         3010.1           143.9 
         3010.4           150.1 
         3010.7             149 
           3011           141.7 
         3011.3           131.1 
         3011.6           121.3 
         3011.9           115.2 
         3012.2           113.9 
         3012.5           116.4 
         3012.8           120.5 
         3013.1             124 
         3013.4           125.6 
         3013.7             125 
           3014           122.6 
         3014.3           119.5 
         3014.6           116.8 
         3014.9           115.4 
         3015.2           115.5 
         3015.5           116.6 
         3015.8             118 
         3016.1           118.9 
         3016.4           118.6 
         3016.7           116.6 
           3017           112.7 
         3017.3           107.1 
         3017.6           100.5 
         3017.9           93.48 
         3018.2           86.17 
         3018.5           78.45 
         3018.8           70.05 
         3019.1           61.04 
         3019.4           51.85 
         3019.7           43.17 
           3020            35.8 
         3020.3           30.49 
         3020.6           27.99 
         3020.9           28.74 
         3021.2           32.87 
         3021.5              40 
         3021.8           49.21 
         3022.1           59.11 
         3022.4            68.1 
         3022.7           74.66 
           3023           77.75 
         3023.3           77.11 
         3023.6           73.47 
         3023.9           68.26 
         3024.2           62.97 
         3024.5           58.64 
         3024.8           55.51 
         3025.1           53.48 
         3025.4           52.56 
         3025.7           53.09 
           3026            55.5 
         3026.3           59.86 
         3026.6           65.57 
         3026.9           71.66 
         3027.2           77.23 
         3027.5           82.03 
         3027.8           86.54 
         3028.1           91.73 
         3028.4           98.51 
         3028.7           107.2 
           3029             117 
         3029.3           126.5 
         3029.6           133.9 
         3029.9           138.2 
         3030.2           139.6 
         3030.5             140 
         3030.8           142.3 
         3031.1             149 
         3031.4           161.6 
         3031.7           178.3 
           3032           195.1 
         3032.3           206.9 
         3032.6           209.8 
         3032.9           202.9 
         3033.2           188.6 
         3033.5           171.2 
         3033.8           155.3 
         3034.1           143.9 
         3034.4           138.3 
         3034.7           137.6 
           3035           139.2 
         3035.3           139.9 
         3035.6           137.1 
         3035.9           129.7 
         3036.2           118.1 
         3036.5           104.4 
         3036.8            91.3 
         3037.1           81.83 
         3037.4           78.07 
         3037.7           80.74 
           3038           88.89 
         3038.3           100.5 
         3038.6           113.3 
         3038.9           125.9 
         3039.2           137.5 
         3039.5           147.9 
         3039.8           156.2 
         3040.1           161.6 
         3040.4           163.2 
         3040.7             161 
           3041           156.7 
         3041.3           152.7 
         3041.6           151.6 
         3041.9           155.1 
         3042.2           162.9 
         3042.5           172.5 
         3042.8           180.5 
         3043.1           184.4 
         3043.4           183.7 
         3043.7             180 
           3044           176.1 
         3044.3           174.3 
         3044.6           175.4 
         3044.9           178.9 
         3045.2           182.4 
         3045.5             183 
         3045.8           178.1 
         3046.1           166.3 
         3046.4           148.2 
         3046.7           126.4 
           3047           104.7 
         3047.3           86.57 
         3047.6           74.98 
         3047.9           71.17 
         3048.2           74.94 
         3048.5           84.85 
         3048.8           98.37 
         3049.1           112.2 
         3049.4           122.9 
         3049.7             128 
           3050           126.9 
         3050.3           121.1 
         3050.6           113.7 
         3050.9           107.4 
         3051.2             104 
         3051.5             104 
         3051.8           106.5 
         3052.1           109.9 
         3052.4           112.6 
         3052.7           113.3 
           3053           111.4 
         3053.3           107.5 
         3053.6           102.9 
         3053.9           99.23 
         3054.2           97.41 
         3054.5           97.45 
         3054.8           98.47 
         3055.1           99.22 
         3055.4           98.69 
         3055.7           96.51 
           3056           93.02 
         3056.3           89.02 
         3056.6           85.38 
         3056.9            82.7 
         3057.2           81.11 
         3057.5           80.22 
         3057.8           79.26 
         3058.1           77.58 
         3058.4           75.24 
         3058.7           73.35 
           3059           73.77 
         3059.3           78.32 
         3059.6           87.88 
         3059.9           101.9 
         3060.2           118.6 
         3060.5           135.5 
         3060.8           150.2 
         3061.1           161.2 
         3061.4           167.7 
         3061.7           169.6 
           3062           166.9 
         3062.3           159.4 
         3062.6           147.4 
         3062.9           132.2 
         3063.2           116.3 
         3063.5             103 
         3063.8           94.72 
         3064.1           92.16 
         3064.4           93.91 
         3064.7           97.31 
           3065           99.97 
         3065.3             101 
         3065.6           101.4 
         3065.9             103 
         3066.2           107.2 
         3066.5           114.4 
         3066.8           123.2 
         3067.1           132.1 
         3067.4           140.4 
         3067.7           148.3 
           3068           156.5 
         3068.3           164.7 
         3068.6           171.5 
         3068.9           174.4 
         3069.2           171.5 
         3069.5           163.1 
         3069.8           151.4 
         3070.1           139.9 
         3070.4           132.2 
         3070.7           130.1 
           3071           134.3 
         3071.3           144.2 
         3071.6           159.3 
         3071.9           178.5 
         3072.2           200.6 
         3072.5           223.2 
         3072.8           243.2 
         3073.1           257.6 
         3073.4           264.3 
         3073.7           262.9 
           3074           254.4 
         3074.3           240.9 
         3074.6           225.4 
         3074.9           211.9 
         3075.2           204.4 
         3075.5           205.6 
         3075.8           215.4 
         3076.1           230.2 
         3076.4           244.3 
         3076.7           252.1 
           3077             251 
         3077.3           242.1 
         3077.6           228.7 
         3077.9           214.9 
         3078.2           203.3 
         3078.5           194.5 
         3078.8           187.2 
         3079.1           179.9 
         3079.4           171.1 
         3079.7           160.3 
           3080             148 
         3080.3           134.6 
         3080.6           121.3 
         3080.9           109.1 
         3081.2           99.24 
         3081.5           92.99 
         3081.8           91.07 
         3082.1           93.19 
         3082.4           97.89 
         3082.7           103.1 
           3083           107.3 
         3083.3           110.3 
         3083.6           113.6 
         3083.9           119.6 
         3084.2           130.4 
         3084.5           146.8 
         3084.8           167.9 
         3085.1           191.6 
         3085.4           214.7 
         3085.7           235.2 
           3086           252.4 
         3086.3           267.5 
         3086.6           282.3 
         3086.9           297.7 
         3087.2           313.3 
         3087.5           327.2 
         3087.8           336.6 
         3088.1           338.2 
         3088.4           328.9 
         3088.7           307.7 
           3089           277.5 
         3089.3           243.9 
         3089.6           213.1 
         3089.9           189.5 
         3090.2           173.3 
         3090.5           161.7 
         3090.8             151 
         3091.1           138.7 
         3091.4           124.6 
         3091.7           110.1 
           3092           97.88 
         3092.3           90.73 
         3092.6           90.89 
         3092.9           99.39 
         3093.2           115.6 
         3093.5           137.1 
         3093.8           160.7 
         3094.1           182.7 
         3094.4           200.6 
         3094.7           212.6 
           3095           217.7 
         3095.3           216.1 
         3095.6           209.8 
         3095.9           202.6 
         3096.2           200.6 
         3096.5           209.9 
         3096.8           234.4 
         3097.1           272.3 
         3097.4           315.7 
         3097.7           351.7 
           3098           367.5 
         3098.3             356 
         3098.6           318.9 
         3098.9           266.2 
         3099.2           211.4 
         3099.5             166 
         3099.8           135.8 
         3100.1           120.4 
         3100.4           115.5 
         3100.7           116.2 
           3101           119.7 
         3101.3           142.8 
         3101.6           171.1 
         3101.9           213.3 
         3102.2           266.5 
         3102.5           322.2 
         3102.8           370.8 
         3103.1           405.4 
         3103.4             425 
         3103.7           433.1 
           3104           434.1 
         3104.3           428.7 
         3104.6             414 
         3104.9           386.6 
         3105.2           346.4 
         3105.5           298.2 
         3105.8             250 
         3106.1           209.3 
         3106.4           181.5 
         3106.7           168.9 
           3107           170.5 
         3107.3           183.1 
         3107.6             202 
         3107.9           221.4 
         3108.2           236.7 
         3108.5           244.8 
         3108.8           245.4 
         3109.1           240.9 
         3109.4           235.2 
         3109.7           233.2 
           3110           238.2 
         3110.3           250.8 
         3110.6           267.7 
         3110.9           282.3 
         3111.2           287.5 
         3111.5             279 
         3111.8           257.8 
         3112.1             229 
         3112.4           200.7 
         3112.7           179.4 
           3113           169.2 
         3113.3           171.7 
         3113.6           186.7 
         3113.9           213.5 
         3114.2           251.9 
         3114.5           300.7 
         3114.8           356.1 
         3115.1           410.9 
         3115.4           454.1 
         3115.7           474.8 
           3116           467.5 
         3116.3           435.7 
         3116.6           391.2 
         3116.9           349.6 
         3117.2           323.8 
         3117.5             320 
         3117.8           335.9 
         3118.1           363.3 
         3118.4           391.9 
         3118.7           412.7 
           3119           421.3 
         3119.3           418.7 
         3119.6           409.5 
         3119.9           399.3 
         3120.2           390.2 
         3120.5           380.8 
         3120.8           366.8 
         3121.1           345.7 
         3121.4             320 
         3121.7           297.3 
           3122           287.1 
         3122.3           295.6 
         3122.6           322.1 
         3122.9           358.6 
         3123.2           393.9 
         3123.5           417.9 
         3123.8           427.2 
         3124.1           425.1 
         3124.4           419.5 
         3124.7           417.7 
           3125           422.4 
         3125.3           431.3 
         3125.6           439.9 
         3125.9           444.8 
         3126.2           445.7 
         3126.5           443.5 
         3126.8           437.9 
         3127.1           426.4 
         3127.4           406.4 
         3127.7           377.1 
           3128           341.1 
         3128.3           303.7 
         3128.6           270.6 
         3128.9           245.9 
         3129.2             231 
         3129.5           225.4 
         3129.8           227.7 
         3130.1           237.9 
         3130.4           257.6 
         3130.7           288.5 
           3131           328.9 
         3131.3           372.4 
         3131.6           408.8 
         3131.9           428.9 
         3132.2           427.9 
         3132.5           407.9 
         3132.8           376.1 
         3133.1           341.9 
         3133.4             314 
         3133.7           298.9 
           3134           298.4 
         3134.3           309.5 
         3134.6           324.5 
         3134.9           334.4 
         3135.2           333.7 
         3135.5             323 
         3135.8           308.8 
         3136.1           298.8 
         3136.4           299.4 
         3136.7           313.2 
           3137           339.2 
         3137.3           373.1 
         3137.6           408.5 
         3137.9           437.1 
         3138.2           452.8 
         3138.5           453.4 
         3138.8             442 
         3139.1             426 
         3139.4           413.8 
         3139.7           412.2 
           3140           424.1 
         3140.3           447.4 
         3140.6           476.1 
         3140.9           503.2 
         3141.2           524.5 
         3141.5           539.7 
         3141.8           549.5 
         3142.1           552.9 
         3142.4           545.4 
         3142.7           523.3 
           3143           486.5 
         3143.3           441.6 
         3143.6           397.3 
         3143.9           360.5 
         3144.2           333.2 
         3144.5           313.5 
         3144.8           298.4 
         3145.1           286.5 
         3145.4           278.3 
         3145.7           275.1 
           3146           278.5 
         3146.3           289.4 
         3146.6           307.8 
         3146.9           332.2 
         3147.2             361 
         3147.5           393.4 
         3147.8           430.6 
         3148.1           474.3 
         3148.4           524.8 
         3148.7           579.3 
           3149           632.3 
         3149.3           677.7 
         3149.6           710.1 
         3149.9           724.3 
         3150.2           715.4 
         3150.5           681.1 
         3150.8           624.2 
         3151.1           553.8 
         3151.4           481.3 
         3151.7           416.7 
           3152           364.6 
         3152.3           324.3 
         3152.6           293.4 
         3152.9           269.6 
         3153.2           253.5 
         3153.5           247.1 
         3153.8           252.8 
         3154.1           270.8 
         3154.4           297.9 
         3154.7           328.6 
           3155           357.2 
         3155.3             381 
         3155.6           400.2 
         3155.9           415.7 
         3156.2           427.5 
         3156.5           434.1 
         3156.8           434.2 
         3157.1           428.5 
         3157.4           420.1 
         3157.7           413.7 
           3158           413.4 
         3158.3           421.3 
         3158.6           436.3 
         3158.9           452.8 
         3159.2           463.3 
         3159.5             462 
         3159.8           448.1 
         3160.1           427.2 
         3160.4           407.8 
         3160.7             396 
           3161           393.3 
         3161.3           397.1 
         3161.6           404.5 
         3161.9           415.6 
         3162.2           432.7 
         3162.5             458 
         3162.8           490.3 
         3163.1           525.6 
         3163.4           559.3 
         3163.7           588.3 
           3164           610.4 
         3164.3           623.4 
         3164.6           625.1 
         3164.9           615.6 
         3165.2           599.2 
         3165.5           583.5 
         3165.8           577.7 
         3166.1             589 
         3166.4           619.7 
         3166.7           666.3 
           3167             718 
         3167.3           760.2 
         3167.6           779.4 
         3167.9           769.8 
         3168.2           737.5 
         3168.5             698 
         3168.8           667.8 
         3169.1           655.2 
         3169.4           656.2 
         3169.7           658.7 
           3170           651.3 
         3170.3           630.1 
         3170.6           601.1 
         3170.9           575.1 
         3171.2           561.6 
         3171.5           563.2 
         3171.8           575.3 
         3172.1           590.6 
         3172.4           604.1 
         3172.7             617 
           3173           635.2 
         3173.3           664.9 
         3173.6           706.8 
         3173.9             755 
         3174.2           799.2 
         3174.5           831.1 
         3174.8           847.7 
         3175.1           850.8 
         3175.4           843.7 
         3175.7           828.9 
           3176           807.7 
         3176.3           782.2 
         3176.6           755.6 
         3176.9           731.1 
         3177.2           711.3 
         3177.5           696.9 
         3177.8           686.6 
         3178.1           676.5 
