# Granada HRES Library
# atmosphere = Phoenix  (atmosphere model used)
# feh = -10  (value for [Fe/H] for the model.)
# logg = 0.5 log(cm/s2) (value for Log(G) for the model.)
# teff = 3500 K (value for the effective temperature for the model. Temperatures are given in K)
#
# column 1: WAVELENGTH (ANGSTROM), Wavelength in Angstrom
# column 2: FLUX (ERG/CM2/S/A), Flux in erg/cm2/s/A
         3000.2           66.21 
         3000.5           58.14 
         3000.8           52.83 
         3001.1           49.91 
         3001.4           48.39 
         3001.7           47.15 
           3002           45.59 
         3002.3           44.15 
         3002.6           44.18 
         3002.9           47.37 
         3003.2           55.02 
         3003.5           67.44 
         3003.8           83.91 
         3004.1           102.8 
         3004.4             122 
         3004.7           139.7 
           3005           153.8 
         3005.3           163.4 
         3005.6           167.3 
         3005.9           165.1 
         3006.2           157.2 
         3006.5           144.7 
         3006.8           129.4 
         3007.1           114.1 
         3007.4           101.3 
         3007.7           93.13 
           3008           90.64 
         3008.3            93.9 
         3008.6           102.2 
         3008.9           114.8 
         3009.2           130.7 
         3009.5           148.8 
         3009.8           166.9 
         3010.1           181.7 
         3010.4           189.9 
         3010.7           189.5 
           3011           181.6 
         3011.3           169.7 
         3011.6           158.7 
         3011.9           152.5 
         3012.2           151.9 
         3012.5           155.6 
         3012.8           160.4 
         3013.1           163.8 
         3013.4           164.2 
         3013.7           161.8 
           3014           157.6 
         3014.3           153.2 
         3014.6           149.9 
         3014.9           148.7 
         3015.2           149.5 
         3015.5           151.4 
         3015.8           153.5 
         3016.1           154.6 
         3016.4           154.2 
         3016.7           151.7 
           3017           147.1 
         3017.3           140.8 
         3017.6           133.7 
         3017.9           126.2 
         3018.2           118.3 
         3018.5           109.2 
         3018.8           98.56 
         3019.1           86.37 
         3019.4           73.27 
         3019.7           60.39 
           3020           49.03 
         3020.3           40.62 
         3020.6            36.5 
         3020.9           37.57 
         3021.2           44.02 
         3021.5           55.14 
         3021.8           69.31 
         3022.1           84.25 
         3022.4            97.5 
         3022.7           106.8 
           3023           110.8 
         3023.3           109.2 
         3023.6           103.3 
         3023.9           95.51 
         3024.2           87.98 
         3024.5           82.06 
         3024.8           77.96 
         3025.1           75.31 
         3025.4           73.99 
         3025.7           74.48 
           3026           77.45 
         3026.3           82.95 
         3026.6           90.12 
         3026.9           97.42 
         3027.2           103.7 
         3027.5           108.7 
         3027.8           113.6 
         3028.1           119.9 
         3028.4           129.1 
         3028.7           141.3 
           3029           155.2 
         3029.3           168.4 
         3029.6           178.6 
         3029.9             184 
         3030.2           184.7 
         3030.5           182.9 
         3030.8           181.8 
         3031.1             185 
         3031.4           194.2 
         3031.7           208.3 
           3032           223.1 
         3032.3           233.2 
         3032.6           234.3 
         3032.9           225.1 
         3033.2           208.1 
         3033.5           188.3 
         3033.8           171.4 
         3034.1           161.4 
         3034.4           159.6 
         3034.7           164.3 
           3035           171.5 
         3035.3           176.8 
         3035.6           176.6 
         3035.9           169.4 
         3036.2           156.2 
         3036.5           139.5 
         3036.8           123.2 
         3037.1           111.2 
         3037.4           106.6 
         3037.7           110.3 
           3038           121.2 
         3038.3           136.5 
         3038.6             153 
         3038.9           168.7 
         3039.2           182.2 
         3039.5           192.8 
         3039.8           199.5 
         3040.1           201.2 
         3040.4           197.3 
         3040.7           188.6 
           3041           177.6 
         3041.3             168 
         3041.6           163.2 
         3041.9           165.2 
         3042.2           173.6 
         3042.5           185.4 
         3042.8           196.8 
         3043.1           204.7 
         3043.4           207.9 
         3043.7           207.7 
           3044           206.3 
         3044.3           206.1 
         3044.6           208.6 
         3044.9           213.7 
         3045.2           219.6 
         3045.5           223.4 
         3045.8           221.3 
         3046.1           210.9 
         3046.4             192 
         3046.7           167.1 
           3047           140.7 
         3047.3           118.2 
         3047.6           103.5 
         3047.9           98.74 
         3048.2             104 
         3048.5           117.5 
         3048.8           135.7 
         3049.1           154.3 
         3049.4           168.7 
         3049.7           175.5 
           3050             174 
         3050.3           166.4 
         3050.6           156.8 
         3050.9           148.9 
         3051.2           145.1 
         3051.5           145.6 
         3051.8           149.2 
         3052.1           153.8 
         3052.4           157.1 
         3052.7           157.4 
           3053           153.8 
         3053.3           147.2 
         3053.6           139.3 
         3053.9           132.6 
         3054.2           128.8 
         3054.5           128.5 
         3054.8           130.5 
         3055.1           133.2 
         3055.4           134.7 
         3055.7           133.9 
           3056           130.8 
         3056.3           126.2 
         3056.6           121.4 
         3056.9           117.4 
         3057.2           114.7 
         3057.5           112.7 
         3057.8           110.8 
         3058.1           107.9 
         3058.4           104.1 
         3058.7           100.9 
           3059           100.9 
         3059.3           106.5 
         3059.6           118.9 
         3059.9           137.3 
         3060.2             159 
         3060.5           180.5 
         3060.8             199 
         3061.1           212.6 
         3061.4           220.6 
         3061.7             223 
           3062           219.4 
         3062.3           209.2 
         3062.6           191.9 
         3062.9           168.9 
         3063.2           143.5 
         3063.5           120.4 
         3063.8           103.5 
         3064.1           94.74 
         3064.4           92.97 
         3064.7            95.3 
           3065           98.59 
         3065.3           101.2 
         3065.6           103.4 
         3065.9             107 
         3066.2           113.5 
         3066.5             123 
         3066.8           134.5 
         3067.1           145.9 
         3067.4           156.1 
         3067.7           164.9 
           3068           172.8 
         3068.3           179.7 
         3068.6           184.2 
         3068.9           184.5 
         3069.2           178.9 
         3069.5           167.9 
         3069.8           154.6 
         3070.1             143 
         3070.4             137 
         3070.7           138.5 
           3071             147 
         3071.3           160.5 
         3071.6           176.8 
         3071.9           194.2 
         3072.2           211.8 
         3072.5           228.8 
         3072.8           243.8 
         3073.1           255.4 
         3073.4           262.7 
         3073.7           265.2 
           3074           263.1 
         3074.3           257.4 
         3074.6           249.8 
         3074.9           243.5 
         3075.2           242.4 
         3075.5           249.7 
         3075.8           265.6 
         3076.1           286.6 
         3076.4           306.4 
         3076.7           318.5 
           3077           319.4 
         3077.3           309.7 
         3077.6           293.7 
         3077.9           276.1 
         3078.2             261 
         3078.5           249.7 
         3078.8             241 
         3079.1           232.5 
         3079.4             222 
         3079.7           208.4 
           3080           192.1 
         3080.3           174.2 
         3080.6           156.4 
         3080.9           140.7 
         3081.2           129.1 
         3081.5           123.3 
         3081.8           123.8 
         3082.1           129.4 
         3082.4           137.3 
         3082.7           143.9 
           3083           146.8 
         3083.3           146.2 
         3083.6           144.5 
         3083.9           145.2 
         3084.2           150.7 
         3084.5           162.1 
         3084.8           178.4 
         3085.1           197.6 
         3085.4           216.4 
         3085.7           232.3 
           3086           244.4 
         3086.3           254.5 
         3086.6           266.1 
         3086.9           282.9 
         3087.2             306 
         3087.5           333.4 
         3087.8           359.3 
         3088.1           375.9 
         3088.4           376.4 
         3088.7           357.8 
           3089           322.6 
         3089.3           278.2 
         3089.6           233.7 
         3089.9           196.4 
         3090.2           169.4 
         3090.5           151.9 
         3090.8           140.7 
         3091.1           132.5 
         3091.4           125.5 
         3091.7           118.9 
           3092           113.8 
         3092.3           112.6 
         3092.6           117.9 
         3092.9           131.1 
         3093.2           151.7 
         3093.5           176.6 
         3093.8           201.6 
         3094.1           222.6 
         3094.4           236.9 
         3094.7           243.4 
           3095           242.1 
         3095.3           233.7 
         3095.6           220.8 
         3095.9           208.4 
         3096.2           203.5 
         3096.5           213.3 
         3096.8           241.3 
         3097.1           284.7 
         3097.4           333.3 
         3097.7           372.2 
           3098           388.1 
         3098.3           374.7 
         3098.6           335.6 
         3098.9           282.3 
         3099.2           229.1 
         3099.5           187.4 
         3099.8           162.4 
         3100.1           152.5 
         3100.4           152.4 
         3100.7           155.9 
           3101           159.9 
         3101.3           176.3 
         3101.6           198.2 
         3101.9           233.1 
         3102.2           278.5 
         3102.5           327.7 
         3102.8             372 
         3103.1           405.5 
         3103.4           426.3 
         3103.7             436 
           3104           436.6 
         3104.3           428.4 
         3104.6           409.4 
         3104.9           378.8 
         3105.2           338.5 
         3105.5           293.8 
         3105.8           251.9 
         3106.1             219 
         3106.4           199.3 
         3106.7           194.3 
           3107           203.5 
         3107.3           223.9 
         3107.6           249.9 
         3107.9             275 
         3108.2           293.3 
         3108.5           301.2 
         3108.8             299 
         3109.1           290.8 
         3109.4           282.7 
         3109.7           280.8 
           3110           289.1 
         3110.3           307.2 
         3110.6             330 
         3110.9           349.2 
         3111.2           356.2 
         3111.5           346.1 
         3111.8           320.4 
         3112.1           285.5 
         3112.4           250.4 
         3112.7           223.2 
           3113           208.8 
         3113.3             209 
         3113.6           223.3 
         3113.9           249.9 
         3114.2           286.7 
         3114.5           329.7 
         3114.8           374.1 
         3115.1           412.7 
         3115.4           437.8 
         3115.7           443.3 
           3116           427.7 
         3116.3           396.5 
         3116.6           360.8 
         3116.9           333.6 
         3117.2             325 
         3117.5           337.5 
         3117.8           366.2 
         3118.1             401 
         3118.4           430.8 
         3118.7           448.1 
           3119             451 
         3119.3           443.1 
         3119.6           431.1 
         3119.9           420.6 
         3120.2           412.5 
         3120.5           402.8 
         3120.8           385.5 
         3121.1           357.5 
         3121.4           322.1 
         3121.7           289.1 
           3122           270.4 
         3122.3           273.9 
         3122.6           299.1 
         3122.9             337 
         3123.2           374.3 
         3123.5           399.2 
         3123.8           406.8 
         3124.1           400.1 
         3124.4           387.4 
         3124.7           377.1 
           3125           373.6 
         3125.3           376.1 
         3125.6           380.9 
         3125.9           384.8 
         3126.2             387 
         3126.5           387.4 
         3126.8           385.1 
         3127.1           377.6 
         3127.4           362.8 
         3127.7           340.6 
           3128           313.8 
         3128.3           287.1 
         3128.6           265.3 
         3128.9           251.3 
         3129.2           245.7 
         3129.5           247.4 
         3129.8           255.1 
         3130.1             269 
         3130.4             291 
         3130.7           322.7 
           3131             362 
         3131.3           401.2 
         3131.6           430.2 
         3131.9           440.2 
         3132.2           428.8 
         3132.5           401.1 
         3132.8           366.2 
         3133.1           333.3 
         3133.4           310.4 
         3133.7           301.8 
           3134             309 
         3134.3           328.4 
         3134.6           352.1 
         3134.9           370.3 
         3135.2           375.7 
         3135.5           367.8 
         3135.8           352.5 
         3136.1           338.8 
         3136.4           334.5 
         3136.7             344 
           3137           367.3 
         3137.3           400.5 
         3137.6           436.5 
         3137.9           466.7 
         3138.2           483.9 
         3138.5           485.9 
         3138.8           476.6 
         3139.1           463.8 
         3139.4           456.7 
         3139.7           461.6 
           3140             480 
         3140.3           507.7 
         3140.6           536.5 
         3140.9           558.6 
         3141.2           569.9 
         3141.5           572.5 
         3141.8             571 
         3142.1           567.3 
         3142.4             559 
         3142.7           541.2 
           3143           512.1 
         3143.3           475.7 
         3143.6           438.8 
         3143.9             407 
         3144.2           382.2 
         3144.5           362.4 
         3144.8           345.3 
         3145.1           329.6 
         3145.4           315.6 
         3145.7           304.7 
           3146           298.6 
         3146.3           299.6 
         3146.6             310 
         3146.9           330.9 
         3147.2           361.6 
         3147.5           401.1 
         3147.8           447.5 
         3148.1           498.6 
         3148.4           549.5 
         3148.7           593.3 
           3149           622.6 
         3149.3           633.8 
         3149.6           627.8 
         3149.9           608.8 
         3150.2           580.1 
         3150.5           543.7 
         3150.8           500.8 
         3151.1             454 
         3151.4           408.1 
         3151.7             368 
           3152             337 
         3152.3           315.2 
         3152.6           301.1 
         3152.9           292.8 
         3153.2             290 
         3153.5           294.7 
         3153.8           309.6 
         3154.1           335.2 
         3154.4           367.5 
         3154.7           398.3 
           3155           419.6 
         3155.3           427.3 
         3155.6           423.8 
         3155.9           415.8 
         3156.2           409.9 
         3156.5           410.1 
         3156.8           416.8 
         3157.1           428.6 
         3157.4           443.7 
         3157.7           461.3 
           3158           480.8 
         3158.3           501.5 
         3158.6           521.2 
         3158.9           534.8 
         3159.2           536.6 
         3159.5           522.7 
         3159.8           494.8 
         3160.1           460.2 
         3160.4           429.8 
         3160.7           412.1 
           3161           410.4 
         3161.3           422.7 
         3161.6           445.6 
         3161.9           477.1 
         3162.2           516.3 
         3162.5           561.4 
         3162.8           606.7 
         3163.1           644.9 
         3163.4             671 
         3163.7           684.6 
           3164           689.2 
         3164.3             688 
         3164.6           682.3 
         3164.9           672.5 
         3165.2           661.5 
         3165.5           655.3 
         3165.8           661.5 
         3166.1           686.5 
         3166.4           731.4 
         3166.7           790.5 
           3167           850.8 
         3167.3           895.4 
         3167.6           910.6 
         3167.9           892.1 
         3168.2           849.8 
         3168.5           803.1 
         3168.8           771.4 
         3169.1           763.4 
         3169.4           772.9 
         3169.7           784.6 
           3170           783.7 
         3170.3           764.9 
         3170.6           734.4 
         3170.9           705.3 
         3171.2           689.5 
         3171.5             691 
         3171.8           704.5 
         3172.1           719.5 
         3172.4           728.1 
         3172.7           729.8 
           3173           732.8 
         3173.3           748.2 
         3173.6           783.7 
         3173.9           838.1 
         3174.2           903.3 
         3174.5           968.5 
         3174.8            1024 
         3175.1            1066 
         3175.4            1087 
         3175.7            1084 
           3176            1055 
         3176.3            1004 
         3176.6           937.9 
         3176.9           871.8 
         3177.2           818.6 
         3177.5           786.8 
         3177.8           777.2 
         3178.1           781.9 
