# Granada HRES Library
# atmosphere = Phoenix  (atmosphere model used)
# feh = 3  (value for [Fe/H] for the model.)
# logg = 5.5 log(cm/s2) (value for Log(G) for the model.)
# teff = 3000 K (value for the effective temperature for the model. Temperatures are given in K)
#
# column 1: WAVELENGTH (ANGSTROM), Wavelength in Angstrom
# column 2: FLUX (ERG/CM2/S/A), Flux in erg/cm2/s/A
         3000.2           7.541 
         3000.5           6.512 
         3000.8            5.75 
         3001.1           5.291 
         3001.4           5.092 
         3001.7           5.072 
           3002           5.197 
         3002.3           5.553 
         3002.6           6.373 
         3002.9           7.981 
         3003.2           10.69 
         3003.5           14.69 
         3003.8           19.89 
         3004.1           25.87 
         3004.4           31.97 
         3004.7           37.36 
           3005           41.25 
         3005.3           43.01 
         3005.6           42.36 
         3005.9           39.39 
         3006.2           34.56 
         3006.5           28.65 
         3006.8           22.56 
         3007.1           17.15 
         3007.4           13.05 
         3007.7           10.59 
           3008           9.873 
         3008.3           10.82 
         3008.6           13.34 
         3008.9           17.34 
         3009.2           22.73 
         3009.5           29.22 
         3009.8           36.24 
         3010.1           42.81 
         3010.4           47.85 
         3010.7           50.56 
           3011           50.76 
         3011.3           49.18 
         3011.6           47.09 
         3011.9           45.82 
         3012.2           46.18 
         3012.5           48.18 
         3012.8           51.13 
         3013.1           54.03 
         3013.4           56.02 
         3013.7           56.58 
           3014           55.63 
         3014.3           53.42 
         3014.6           50.41 
         3014.9           47.03 
         3015.2           43.57 
         3015.5           40.09 
         3015.8           36.53 
         3016.1           32.88 
         3016.4           29.18 
         3016.7           25.52 
           3017           22.02 
         3017.3           18.84 
         3017.6           16.08 
         3017.9            13.8 
         3018.2           11.95 
         3018.5           10.35 
         3018.8           8.853 
         3019.1           7.396 
         3019.4           5.985 
         3019.7           4.693 
           3020           3.618 
         3020.3           2.858 
         3020.6           2.502 
         3020.9           2.615 
         3021.2            3.22 
         3021.5           4.278 
         3021.8           5.677 
         3022.1           7.227 
         3022.4           8.693 
         3022.7           9.842 
           3023           10.52 
         3023.3           10.72 
         3023.6           10.58 
         3023.9           10.29 
         3024.2           10.03 
         3024.5           9.849 
         3024.8            9.74 
         3025.1           9.748 
         3025.4           10.11 
         3025.7           11.26 
           3026           13.69 
         3026.3           17.74 
         3026.6           23.44 
         3026.9           30.48 
         3027.2           38.33 
         3027.5           46.39 
         3027.8            54.2 
         3028.1           61.53 
         3028.4           68.35 
         3028.7           74.66 
           3029           80.34 
         3029.3           84.99 
         3029.6           88.02 
         3029.9           88.85 
         3030.2           87.18 
         3030.5           83.35 
         3030.8           78.44 
         3031.1           74.18 
         3031.4           72.41 
         3031.7           74.29 
           3032           79.68 
         3032.3           87.07 
         3032.6           94.07 
         3032.9           98.47 
         3033.2           99.03 
         3033.5           95.81 
         3033.8           89.94 
         3034.1           83.01 
         3034.4           76.29 
         3034.7           70.19 
           3035           64.39 
         3035.3           58.22 
         3035.6           51.15 
         3035.9           43.19 
         3036.2           34.87 
         3036.5           27.02 
         3036.8           20.52 
         3037.1            16.1 
         3037.4           14.23 
         3037.7           15.11 
           3038            18.6 
         3038.3           24.23 
         3038.6           31.26 
         3038.9           38.66 
         3039.2           45.36 
         3039.5           50.52 
         3039.8           53.76 
         3040.1           55.22 
         3040.4           55.37 
         3040.7           54.78 
           3041           53.84 
         3041.3            52.9 
         3041.6           52.34 
         3041.9           52.62 
         3042.2           53.96 
         3042.5           56.16 
         3042.8           58.57 
         3043.1           60.43 
         3043.4           61.23 
         3043.7            60.9 
           3044           59.65 
         3044.3           57.76 
         3044.6           55.43 
         3044.9           52.63 
         3045.2            49.3 
         3045.5           45.24 
         3045.8           40.35 
         3046.1           34.68 
         3046.4           28.57 
         3046.7           22.62 
           3047           17.47 
         3047.3           13.74 
         3047.6           11.79 
         3047.9           11.71 
         3048.2           13.33 
         3048.5            16.2 
         3048.8           19.67 
         3049.1           22.93 
         3049.4           25.27 
         3049.7           26.29 
           3050           26.14 
         3050.3           25.57 
         3050.6           25.65 
         3050.9           27.35 
         3051.2           31.22 
         3051.5           37.13 
         3051.8           44.27 
         3052.1           51.36 
         3052.4           56.91 
         3052.7            59.7 
           3053           59.14 
         3053.3           55.69 
         3053.6            50.7 
         3053.9           46.02 
         3054.2           43.24 
         3054.5           43.11 
         3054.8           45.27 
         3055.1           48.46 
         3055.4           51.11 
         3055.7           51.84 
           3056              50 
         3056.3           45.67 
         3056.6           39.57 
         3056.9           32.71 
         3057.2           26.04 
         3057.5           20.28 
         3057.8           15.79 
         3058.1           12.63 
         3058.4           10.75 
         3058.7           10.17 
           3059           11.01 
         3059.3           13.47 
         3059.6            17.7 
         3059.9           23.62 
         3060.2           30.95 
         3060.5           39.21 
         3060.8           47.93 
         3061.1           56.71 
         3061.4           65.22 
         3061.7           72.98 
           3062           79.15 
         3062.3           82.51 
         3062.6           81.91 
         3062.9           76.93 
         3063.2           68.37 
         3063.5           58.16 
         3063.8           48.72 
         3064.1           42.17 
         3064.4           39.48 
         3064.7           40.32 
           3065           43.21 
         3065.3           46.23 
         3065.6            47.8 
         3065.9           47.26 
         3066.2           44.94 
         3066.5           41.82 
         3066.8           39.06 
         3067.1           37.58 
         3067.4           37.98 
         3067.7           40.49 
           3068           44.95 
         3068.3           50.79 
         3068.6           57.23 
         3068.9           63.46 
         3069.2           69.01 
         3069.5           74.06 
         3069.8           79.35 
         3070.1           85.77 
         3070.4           93.77 
         3070.7           103.1 
           3071           112.9 
         3071.3           122.7 
         3071.6           132.6 
         3071.9           143.5 
         3072.2           155.7 
         3072.5             168 
         3072.8           177.8 
         3073.1           182.1 
         3073.4           179.3 
         3073.7           170.3 
           3074           157.3 
         3074.3             143 
         3074.6           129.4 
         3074.9           117.7 
         3075.2           109.2 
         3075.5           104.8 
         3075.8           105.1 
         3076.1           109.5 
         3076.4           115.8 
         3076.7           121.5 
           3077           124.1 
         3077.3           122.9 
         3077.6           118.1 
         3077.9           111.1 
         3078.2             103 
         3078.5           94.68 
         3078.8           86.31 
         3079.1           77.62 
         3079.4           68.37 
         3079.7           58.62 
           3080           48.72 
         3080.3           39.22 
         3080.6           30.63 
         3080.9           23.33 
         3081.2           17.52 
         3081.5           13.26 
         3081.8           10.57 
         3082.1           9.385 
         3082.4           9.658 
         3082.7           11.32 
           3083           14.29 
         3083.3           18.48 
         3083.6           23.67 
         3083.9           29.61 
         3084.2           35.94 
         3084.5           42.38 
         3084.8           48.74 
         3085.1           54.76 
         3085.4           60.09 
         3085.7           64.27 
           3086           67.12 
         3086.3           68.96 
         3086.6            70.6 
         3086.9           72.96 
         3087.2           76.52 
         3087.5           80.96 
         3087.8           85.15 
         3088.1           87.57 
         3088.4           86.86 
         3088.7           82.44 
           3089           74.65 
         3089.3           64.69 
         3089.6           54.07 
         3089.9           44.14 
         3090.2           35.68 
         3090.5           28.81 
         3090.8           23.28 
         3091.1           18.71 
         3091.4           14.86 
         3091.7           11.65 
           3092           9.187 
         3092.3           7.611 
         3092.6           7.079 
         3092.9           7.684 
         3093.2           9.421 
         3093.5           12.17 
         3093.8           15.69 
         3094.1           19.69 
         3094.4           23.82 
         3094.7           27.79 
           3095           31.32 
         3095.3            34.3 
         3095.6           36.77 
         3095.9            39.1 
         3096.2            41.9 
         3096.5           45.87 
         3096.8           51.34 
         3097.1           57.84 
         3097.4           64.02 
         3097.7           67.97 
           3098           68.09 
         3098.3           63.81 
         3098.6           55.92 
         3098.9            46.2 
         3099.2            36.7 
         3099.5              29 
         3099.8            23.8 
         3100.1           20.96 
         3100.4           19.82 
         3100.7           19.76 
           3101           20.61 
         3101.3           27.34 
         3101.6           35.31 
         3101.9           47.39 
         3102.2           63.64 
         3102.5            83.3 
         3102.8           104.8 
         3103.1           126.1 
         3103.4           144.2 
         3103.7           156.6 
           3104             161 
         3104.3           156.5 
         3104.6           144.4 
         3104.9           128.1 
         3105.2           111.5 
         3105.5           98.84 
         3105.8           92.38 
         3106.1           92.58 
         3106.4           98.25 
         3106.7           107.4 
           3107           118.1 
         3107.3           128.4 
         3107.6             137 
         3107.9           143.5 
         3108.2           148.9 
         3108.5             156 
         3108.8           168.7 
         3109.1           190.1 
         3109.4           220.5 
         3109.7           256.8 
           3110           292.4 
         3110.3           319.8 
         3110.6           332.7 
         3110.9             329 
         3111.2           310.8 
         3111.5           283.4 
         3111.8           253.3 
         3112.1           226.2 
         3112.4           205.2 
         3112.7           192.1 
           3113           188.6 
         3113.3           196.8 
         3113.6           218.7 
         3113.9             254 
         3114.2           299.8 
         3114.5           349.1 
         3114.8           391.9 
         3115.1           418.4 
         3115.4           421.8 
         3115.7           400.9 
           3116           360.8 
         3116.3           312.5 
         3116.6           269.7 
         3116.9           244.4 
         3117.2           244.1 
         3117.5           269.1 
         3117.8           312.8 
         3118.1           363.5 
         3118.4           408.7 
         3118.7           439.9 
           3119           454.9 
         3119.3           457.5 
         3119.6           453.2 
         3119.9             446 
         3120.2           435.1 
         3120.5           416.9 
         3120.8           388.7 
         3121.1           351.2 
         3121.4           309.8 
         3121.7           272.8 
           3122             247 
         3122.3             236 
         3122.6           238.3 
         3122.9             250 
         3123.2           266.2 
         3123.5           283.3 
         3123.8           299.8 
         3124.1             315 
         3124.4           328.8 
         3124.7           341.6 
           3125           354.1 
         3125.3           367.9 
         3125.6           384.5 
         3125.9           404.4 
         3126.2           425.1 
         3126.5           441.2 
         3126.8           445.8 
         3127.1           434.1 
         3127.4           406.6 
         3127.7           369.2 
           3128           330.6 
         3128.3           298.7 
         3128.6           277.7 
         3128.9           267.9 
         3129.2           267.9 
         3129.5           276.3 
         3129.8           292.3 
         3130.1           314.5 
         3130.4           340.4 
         3130.7             365 
           3131           382.6 
         3131.3           387.8 
         3131.6           377.5 
         3131.9           351.4 
         3132.2           312.7 
         3132.5           266.4 
         3132.8           219.1 
         3133.1           177.9 
         3133.4           148.8 
         3133.7           136.2 
           3134           140.9 
         3134.3           159.8 
         3134.6           186.3 
         3134.9           212.4 
         3135.2           231.1 
         3135.5           240.1 
         3135.8           241.7 
         3136.1           242.5 
         3136.4           251.1 
         3136.7           275.4 
           3137           318.9 
         3137.3           379.3 
         3137.6           447.1 
         3137.9           508.2 
         3138.2           549.2 
         3138.5           561.3 
         3138.8           545.1 
         3139.1           508.2 
         3139.4           462.8 
         3139.7           420.6 
           3140           390.7 
         3140.3           377.5 
         3140.6           380.5 
         3140.9           394.9 
         3141.2           413.5 
         3141.5           428.5 
         3141.8             434 
         3142.1           426.5 
         3142.4           406.8 
         3142.7           379.3 
           3143           352.1 
         3143.3             333 
         3143.6           327.1 
         3143.9           333.1 
         3144.2           345.6 
         3144.5           357.6 
         3144.8             365 
         3145.1           367.6 
         3145.4           367.4 
         3145.7           365.5 
           3146             362 
         3146.3           358.7 
         3146.6           360.7 
         3146.9           376.2 
         3147.2           411.8 
         3147.5           467.6 
         3147.8           534.8 
         3148.1           598.4 
         3148.4           642.7 
         3148.7           656.5 
           3149           637.2 
         3149.3           589.9 
         3149.6           525.6 
         3149.9           457.2 
         3150.2           396.9 
         3150.5           354.3 
         3150.8           335.6 
         3151.1           341.9 
         3151.4             370 
         3151.7           412.4 
           3152           459.5 
         3152.3           501.6 
         3152.6           530.9 
         3152.9           543.6 
         3153.2             541 
         3153.5           530.3 
         3153.8           523.2 
         3154.1           532.3 
         3154.4           565.5 
         3154.7           621.8 
           3155           692.2 
         3155.3             764 
         3155.6           825.7 
         3155.9           871.3 
         3156.2           900.9 
         3156.5             918 
         3156.8           927.4 
         3157.1           932.1 
         3157.4           932.9 
         3157.7             930 
           3158           924.6 
         3158.3           919.6 
         3158.6           917.3 
         3158.9           917.3 
         3159.2           914.9 
         3159.5           904.9 
         3159.8           885.8 
         3160.1           863.2 
         3160.4           847.4 
         3160.7           847.9 
           3161           867.7 
         3161.3             902 
         3161.6           941.6 
         3161.9           976.4 
         3162.2           999.3 
         3162.5            1007 
         3162.8             997 
         3163.1           970.5 
         3163.4           931.2 
         3163.7             886 
           3164           843.5 
         3164.3           811.5 
         3164.6           796.5 
         3164.9           804.1 
         3165.2           840.7 
         3165.5           912.3 
         3165.8            1020 
         3166.1            1160 
         3166.4            1315 
         3166.7            1461 
           3167            1573 
         3167.3            1630 
         3167.6            1620 
         3167.9            1551 
         3168.2            1447 
         3168.5            1342 
         3168.8            1271 
         3169.1            1254 
         3169.4            1286 
         3169.7            1348 
           3170            1411 
         3170.3            1452 
         3170.6            1466 
         3170.9            1462 
         3171.2            1455 
         3171.5            1458 
         3171.8            1473 
         3172.1            1495 
         3172.4            1514 
         3172.7            1530 
           3173            1546 
         3173.3            1571 
         3173.6            1608 
         3173.9            1654 
         3174.2            1697 
         3174.5            1725 
         3174.8            1737 
         3175.1            1736 
         3175.4            1730 
         3175.7            1725 
           3176            1718 
         3176.3            1702 
         3176.6            1669 
         3176.9            1619 
         3177.2            1562 
         3177.5            1512 
         3177.8            1480 
         3178.1            1461 
