# Granada HRES Library
# atmosphere = Spectrum  (atmosphere model used)
# feh = 3  (value for [Fe/H] for the model.)
# logg = 1 log(cm/s2) (value for Log(G) for the model.)
# teff = 4750 K (value for the effective temperature for the model. Temperatures are given in K)
#
# column 1: WAVELENGTH (ANGSTROM), Wavelength in Angstrom
# column 2: FLUX (ERG/CM2/S/A), Flux in erg/cm2/s/A
         3000.2            2212 
         3000.5            2340 
         3000.8            2526 
         3001.1            2790 
         3001.4            3156 
         3001.7            3686 
           3002            4461 
         3002.3            5611 
         3002.6            7301 
         3002.9            9715 
         3003.2           13020 
         3003.5           17310 
         3003.8           22520 
         3004.1           28420 
         3004.4           34570 
         3004.7           40330 
           3005           45000 
         3005.3           47920 
         3005.6           48600 
         3005.9           46910 
         3006.2           43060 
         3006.5           37610 
         3006.8           31330 
         3007.1           25040 
         3007.4           19480 
         3007.7           15160 
           3008           12410 
         3008.3           11330 
         3008.6           11900 
         3008.9           13990 
         3009.2           17360 
         3009.5           21630 
         3009.8           26320 
         3010.1           30900 
         3010.4           34810 
         3010.7           37690 
           3011           39390 
         3011.3           40070 
         3011.6           40120 
         3011.9           39980 
         3012.2           40000 
         3012.5           40340 
         3012.8           40930 
         3013.1           41530 
         3013.4           41850 
         3013.7           41630 
           3014           40710 
         3014.3           39040 
         3014.6           36680 
         3014.9           33780 
         3015.2           30520 
         3015.5           27120 
         3015.8           23750 
         3016.1           20530 
         3016.4           17560 
         3016.7           14870 
           3017           12480 
         3017.3           10390 
         3017.6            8584 
         3017.9            7037 
         3018.2            5734 
         3018.5            4627 
         3018.8            3706 
         3019.1            2932 
         3019.4            2299 
         3019.7            1802 
           3020            1448 
         3020.3            1246 
         3020.6            1206 
         3020.9            1342 
         3021.2            1651 
         3021.5            2121 
         3021.8            2723 
         3022.1            3412 
         3022.4            4135 
         3022.7            4833 
           3023            5455 
         3023.3            5962 
         3023.6            6336 
         3023.9            6579 
         3024.2            6724 
         3024.5            6856 
         3024.8            7117 
         3025.1            7693 
         3025.4            8820 
         3025.7           10810 
           3026           13950 
         3026.3           18450 
         3026.6           24390 
         3026.9           31640 
         3027.2           39820 
         3027.5           48320 
         3027.8           56360 
         3028.1           63120 
         3028.4           67930 
         3028.7           70460 
           3029           70700 
         3029.3           69070 
         3029.6           66270 
         3029.9           63080 
         3030.2           60350 
         3030.5           58880 
         3030.8           59420 
         3031.1           62600 
         3031.4           68790 
         3031.7           77920 
           3032           89390 
         3032.3          102100 
         3032.6          114700 
         3032.9          125700 
         3033.2          133800 
         3033.5          138200 
         3033.8          138600 
         3034.1          135000 
         3034.4          128000 
         3034.7          118000 
           3035          105900 
         3035.3           92350 
         3035.6           78120 
         3035.9           64000 
         3036.2           50770 
         3036.5           39150 
         3036.8           29730 
         3037.1           22900 
         3037.4           18790 
         3037.7           17260 
           3038           18040 
         3038.3           20640 
         3038.6           24470 
         3038.9           28870 
         3039.2           33210 
         3039.5           37000 
         3039.8           39810 
         3040.1           41440 
         3040.4           41920 
         3040.7           41460 
           3041           40440 
         3041.3           39350 
         3041.6           38770 
         3041.9           39190 
         3042.2           40910 
         3042.5           43970 
         3042.8           48020 
         3043.1           52490 
         3043.4           56650 
         3043.7           59780 
           3044           61370 
         3044.3           61150 
         3044.6           59080 
         3044.9           55370 
         3045.2           50360 
         3045.5           44470 
         3045.8           38160 
         3046.1           31860 
         3046.4           25990 
         3046.7           20950 
           3047           17030 
         3047.3           14480 
         3047.6           13440 
         3047.9           13850 
         3048.2           15530 
         3048.5           18110 
         3048.8           21290 
         3049.1           24670 
         3049.4           28100 
         3049.7           31760 
           3050           36120 
         3050.3           41830 
         3050.6           49450 
         3050.9           59200 
         3051.2           70640 
         3051.5           82590 
         3051.8           93370 
         3052.1          101100 
         3052.4          104400 
         3052.7          102600 
           3053           96110 
         3053.3           86340 
         3053.6           75190 
         3053.9           64570 
         3054.2           55890 
         3054.5           49800 
         3054.8           46130 
         3055.1           44120 
         3055.4           42750 
         3055.7           41080 
           3056           38490 
         3056.3           34770 
         3056.6           30110 
         3056.9           25000 
         3057.2           19990 
         3057.5           15550 
         3057.8           12060 
         3058.1            9710 
         3058.4            8634 
         3058.7            9014 
           3059           10940 
         3059.3           14620 
         3059.6           20200 
         3059.9           27810 
         3060.2           37350 
         3060.5           48470 
         3060.8           60550 
         3061.1           72750 
         3061.4           84000 
         3061.7           93240 
           3062           99530 
         3062.3          102200 
         3062.6          101200 
         3062.9           96920 
         3063.2           90390 
         3063.5           82880 
         3063.8           75670 
         3064.1           69690 
         3064.4           65310 
         3064.7           62340 
           3065           60070 
         3065.3           57830 
         3065.6           55020 
         3065.9           51660 
         3066.2           48310 
         3066.5           46070 
         3066.8           46460 
         3067.1           51060 
         3067.4           60780 
         3067.7           76140 
           3068           96540 
         3068.3          120500 
         3068.6          145900 
         3068.9          170000 
         3069.2          190500 
         3069.5          205500 
         3069.8          214300 
         3070.1          216800 
         3070.4          213900 
         3070.7          206600 
           3071          195900 
         3071.3          182800 
         3071.6          168500 
         3071.9          154200 
         3072.2          141300 
         3072.5          130700 
         3072.8          123000 
         3073.1          117700 
         3073.4          114000 
         3073.7          110700 
           3074          106800 
         3074.3          102100 
         3074.6           97190 
         3074.9           93180 
         3075.2           91690 
         3075.5           93780 
         3075.8           99910 
         3076.1          109300 
         3076.4          120400 
         3076.7          131000 
           3077          139000 
         3077.3          143200 
         3077.6          143300 
         3077.9          140400 
         3078.2          136100 
         3078.5          132400 
         3078.8          130700 
         3079.1          131600 
         3079.4          134600 
         3079.7          138300 
           3080          141400 
         3080.3          142400 
         3080.6          140700 
         3080.9          136000 
         3081.2          129100 
         3081.5          120900 
         3081.8          113000 
         3082.1          106800 
         3082.4          103400 
         3082.7          104100 
           3083          110200 
         3083.3          122800 
         3083.6          142700 
         3083.9          169900 
         3084.2          203100 
         3084.5          239800 
         3084.8          276000 
         3085.1          306800 
         3085.4          327800 
         3085.7          335400 
           3086          328300 
         3086.3          307800 
         3086.6          277300 
         3086.9          241700 
         3087.2          206400 
         3087.5          175400 
         3087.8          151300 
         3088.1          135100 
         3088.4          125500 
         3088.7          120700 
           3089          118200 
         3089.3          116200 
         3089.6          113200 
         3089.9          108700 
         3090.2          102900 
         3090.5           96410 
         3090.8           89650 
         3091.1           83220 
         3091.4           77510 
         3091.7           72900 
           3092           69660 
         3092.3           68220 
         3092.6           69120 
         3092.9           72920 
         3093.2           79870 
         3093.5           89650 
         3093.8          101200 
         3094.1          113000 
         3094.4          123100 
         3094.7          129900 
           3095          132600 
         3095.3          131100 
         3095.6          126500 
         3095.9          120400 
         3096.2          114500 
         3096.5          110200 
         3096.8          107800 
         3097.1          107100 
         3097.4          106600 
         3097.7          104800 
           3098          100400 
         3098.3           92530 
         3098.6           81620 
         3098.9           68630 
         3099.2           55060 
         3099.5           42350 
         3099.8           31770 
         3100.1           24050 
         3100.4           19640 
         3100.7           18690 
           3101           21340 
         3101.3           27650 
         3101.6           37600 
         3101.9           50950 
         3102.2           67110 
         3102.5           85090 
         3102.8          103600 
         3103.1          121200 
         3103.4          136600 
         3103.7          148900 
           3104          157600 
         3104.3          163100 
         3104.6          166500 
         3104.9          169300 
         3105.2          173400 
         3105.5          180600 
         3105.8          192100 
         3106.1          208300 
         3106.4          228600 
         3106.7          251700 
           3107          275600 
         3107.3          298400 
         3107.6          318400 
         3107.9          333900 
         3108.2          343500 
         3108.5          346600 
         3108.8          343100 
         3109.1          333800 
         3109.4          320800 
         3109.7          307200 
           3110          296800 
         3110.3          292500 
         3110.6          295900 
         3110.9          306400 
         3111.2          321200 
         3111.5          336200 
         3111.8          346700 
         3112.1          349100 
         3112.4          342000 
         3112.7          326100 
           3113          304200 
         3113.3          280400 
         3113.6          258900 
         3113.9          242800 
         3114.2          233400 
         3114.5          230200 
         3114.8          231100 
         3115.1          233300 
         3115.4          234000 
         3115.7          231200 
           3116          224300 
         3116.3          213400 
         3116.6          199500 
         3116.9          184300 
         3117.2          169000 
         3117.5          154900 
         3117.8          143000 
         3118.1          133800 
         3118.4          127700 
         3118.7          124900 
           3119          125200 
         3119.3          128500 
         3119.6          134600 
         3119.9          142900 
         3120.2          152500 
         3120.5          161900 
         3120.8          169300 
         3121.1          173300 
         3121.4          173200 
         3121.7          169600 
           3122          164300 
         3122.3          159600 
         3122.6          157700 
         3122.9          159900 
         3123.2          166300 
         3123.5          175200 
         3123.8          184300 
         3124.1          190900 
         3124.4          193600 
         3124.7          192500 
           3125          189100 
         3125.3          186400 
         3125.6          187100 
         3125.9          193100 
         3126.2          204400 
         3126.5          219200 
         3126.8          234800 
         3127.1          248200 
         3127.4          256900 
         3127.7          259500 
           3128          256300 
         3128.3          248200 
         3128.6          237300 
         3128.9          225300 
         3129.2          213800 
         3129.5          203300 
         3129.8          194200 
         3130.1          186500 
         3130.4          179900 
         3130.7          173900 
           3131          168200 
         3131.3          162100 
         3131.6          155000 
         3131.9          146500 
         3132.2          136400 
         3132.5          125700 
         3132.8          115300 
         3133.1          107000 
         3133.4          102700 
         3133.7          103800 
           3134          111200 
         3134.3          124600 
         3134.6          142800 
         3134.9          163200 
         3135.2          183400 
         3135.5          200700 
         3135.8          213800 
         3136.1          222100 
         3136.4          226200 
         3136.7          227400 
           3137          227000 
         3137.3          226300 
         3137.6          226500 
         3137.9          228200 
         3138.2          232100 
         3138.5          238400 
         3138.8          247200 
         3139.1          258500 
         3139.4          272000 
         3139.7          287000 
           3140          302900 
         3140.3          318100 
         3140.6          330700 
         3140.9          338400 
         3141.2          339000 
         3141.5          331200 
         3141.8          314700 
         3142.1          290300 
         3142.4          260100 
         3142.7          226700 
           3143          192800 
         3143.3          161100 
         3143.6          133600 
         3143.9          112000 
         3144.2           96960 
         3144.5           88560 
         3144.8           86240 
         3145.1           88650 
         3145.4           94330 
         3145.7          101700 
           3146          109700 
         3146.3          118100 
         3146.6          127500 
         3146.9          139300 
         3147.2          154800 
         3147.5          174600 
         3147.8          199000 
         3148.1          226300 
         3148.4          254600 
         3148.7          281600 
           3149          305000 
         3149.3          323600 
         3149.6          337000 
         3149.9          345300 
         3150.2          349200 
         3150.5          348900 
         3150.8          344800 
         3151.1          337800 
         3151.4          328600 
         3151.7          318700 
           3152          309600 
         3152.3          302500 
         3152.6          297800 
         3152.9          295300 
         3153.2          293900 
         3153.5          292700 
         3153.8          290500 
         3154.1          286800 
         3154.4          281600 
         3154.7          275100 
           3155          267500 
         3155.3          258800 
         3155.6          248500 
         3155.9          236300 
         3156.2          221700 
         3156.5          204800 
         3156.8          186300 
         3157.1          167200 
         3157.4          149200 
         3157.7          133500 
           3158          121300 
         3158.3          112900 
         3158.6          107900 
         3158.9          105400 
         3159.2          104100 
         3159.5          102600 
         3159.8          100200 
         3160.1           96190 
         3160.4           91230 
         3160.7           86320 
           3161           82930 
         3161.3           82430 
         3161.6           85910 
         3161.9           93860 
         3162.2          105700 
         3162.5          120300 
         3162.8          135800 
         3163.1          150300 
         3163.4          162000 
         3163.7          170000 
           3164          174400 
         3164.3          176300 
         3164.6          177500 
         3164.9          179700 
         3165.2          184600 
         3165.5          192400 
         3165.8          202700 
         3166.1          213800 
         3166.4          223400 
         3166.7          229300 
           3167          229700 
         3167.3          224400 
         3167.6          214700 
         3167.9          203300 
         3168.2          194000 
         3168.5          190100 
         3168.8          194200 
         3169.1          207100 
         3169.4          227500 
         3169.7          253000 
           3170          280400 
         3170.3          307000 
         3170.6          330800 
         3170.9          351300 
         3171.2          368900 
         3171.5          384300 
         3171.8          397600 
         3172.1          408800 
         3172.4          416800 
         3172.7          420500 
           3173          419600 
         3173.3          414500 
         3173.6          406600 
         3173.9          398200 
         3174.2          391900 
         3174.5          390500 
         3174.8          395700 
         3175.1          407800 
         3175.4          425300 
         3175.7          444500 
           3176          460700 
         3176.3          468800 
         3176.6          465100 
         3176.9          448100 
         3177.2          419300 
         3177.5          381700 
         3177.8          339800 
         3178.1          297800 
