# Granada HRES Library
# atmosphere = Phoenix  (atmosphere model used)
# feh = -10  (value for [Fe/H] for the model.)
# logg = 1.5 log(cm/s2) (value for Log(G) for the model.)
# teff = 4500 K (value for the effective temperature for the model. Temperatures are given in K)
#
# column 1: WAVELENGTH (ANGSTROM), Wavelength in Angstrom
# column 2: FLUX (ERG/CM2/S/A), Flux in erg/cm2/s/A
         3000.2           16200 
         3000.5           14520 
         3000.8           13320 
         3001.1           12620 
         3001.4           12280 
         3001.7           12140 
           3002           12200 
         3002.3           12780 
         3002.6           14610 
         3002.9           18630 
         3003.2           25690 
         3003.5           36170 
         3003.8           49680 
         3004.1           65040 
         3004.4           80450 
         3004.7           94040 
           3005          104200 
         3005.3          109800 
         3005.6          110200 
         3005.9          105300 
         3006.2           95580 
         3006.5           82240 
         3006.8           67120 
         3007.1           52460 
         3007.4           40280 
         3007.7           31950 
           3008           28000 
         3008.3           28230 
         3008.6           32070 
         3008.9           38850 
         3009.2           47880 
         3009.5           58230 
         3009.8           68550 
         3010.1           77080 
         3010.4           82260 
         3010.7           83510 
           3011           81750 
         3011.3           79240 
         3011.6           78670 
         3011.9           81880 
         3012.2           88780 
         3012.5           97400 
         3012.8          104800 
         3013.1          108400 
         3013.4          107600 
         3013.7          103300 
           3014           97240 
         3014.3           91280 
         3014.6           86210 
         3014.9           82060 
         3015.2           78490 
         3015.5           75220 
         3015.8           72120 
         3016.1           69060 
         3016.4           65730 
         3016.7           61690 
           3017           56780 
         3017.3           51230 
         3017.6           45570 
         3017.9           40180 
         3018.2           35140 
         3018.5           30240 
         3018.8           25290 
         3019.1           20390 
         3019.4           15790 
         3019.7           11830 
           3020            8781 
         3020.3            6871 
         3020.6            6301 
         3020.9            7282 
         3021.2            9986 
         3021.5           14430 
         3021.8           20370 
         3022.1           27120 
         3022.4           33690 
         3022.7           38930 
           3023           42080 
         3023.3           42970 
         3023.6           42190 
         3023.9           40680 
         3024.2           39170 
         3024.5           37850 
         3024.8           36520 
         3025.1           35110 
         3025.4           34200 
         3025.7           34910 
           3026           38370 
         3026.3           45070 
         3026.6           54690 
         3026.9           66510 
         3027.2           79800 
         3027.5           94140 
         3027.8          108900 
         3028.1          122700 
         3028.4          133500 
         3028.7          138800 
           3029          137300 
         3029.3          129000 
         3029.6          115200 
         3029.9           98700 
         3030.2           82350 
         3030.5           69470 
         3030.8           63120 
         3031.1           65530 
         3031.4           77160 
         3031.7           96120 
           3032          118200 
         3032.3          138100 
         3032.6          150900 
         3032.9          154100 
         3033.2          148200 
         3033.5          136500 
         3033.8          123400 
         3034.1          112900 
         3034.4          107000 
         3034.7          105100 
           3035          104700 
         3035.3          102700 
         3035.6           96970 
         3035.9           86920 
         3036.2           73560 
         3036.5           58960 
         3036.8           45440 
         3037.1           34890 
         3037.4           28420 
         3037.7           26310 
           3038           28230 
         3038.3           33560 
         3038.6           41650 
         3038.9           51640 
         3039.2           62220 
         3039.5           71590 
         3039.8           77800 
         3040.1           79580 
         3040.4           76770 
         3040.7           70360 
           3041           61960 
         3041.3           53390 
         3041.6           46320 
         3041.9           42080 
         3042.2           41450 
         3042.5           44650 
         3042.8           51460 
         3043.1           61550 
         3043.4           74450 
         3043.7           89260 
           3044          104300 
         3044.3          117100 
         3044.6          125500 
         3044.9          128600 
         3045.2          126700 
         3045.5          120500 
         3045.8          111000 
         3046.1           98370 
         3046.4           83350 
         3046.7           67250 
           3047           52240 
         3047.3           40780 
         3047.6           34780 
         3047.9           35030 
         3048.2           41100 
         3048.5           51380 
         3048.8           63210 
         3049.1           73460 
         3049.4           79440 
         3049.7           80070 
           3050           76510 
         3050.3           71910 
         3050.6           70110 
         3050.9           73930 
         3051.2           83850 
         3051.5           97840 
         3051.8          112000 
         3052.1          122000 
         3052.4          124800 
         3052.7          119300 
           3053          107100 
         3053.3           91320 
         3053.6           76090 
         3053.9           64750 
         3054.2           59590 
         3054.5           61560 
         3054.8           70150 
         3055.1           83170 
         3055.4           96900 
         3055.7          107000 
           3056          109800 
         3056.3          104100 
         3056.6           91040 
         3056.9           74050 
         3057.2           56830 
         3057.5           42180 
         3057.8           31370 
         3058.1           24410 
         3058.4           20840 
         3058.7           20450 
           3059           23550 
         3059.3           30810 
         3059.6           42620 
         3059.9           58580 
         3060.2           77290 
         3060.5           96550 
         3060.8          114100 
         3061.1          128500 
         3061.4          139200 
         3061.7          146500 
           3062          150600 
         3062.3          151100 
         3062.6          146500 
         3062.9          135800 
         3063.2          119700 
         3063.5          100800 
         3063.8           83290 
         3064.1           71090 
         3064.4           66150 
         3064.7           67770 
           3065           73010 
         3065.3           77960 
         3065.6           79470 
         3065.9           76340 
         3066.2           69690 
         3066.5           62290 
         3066.8           57330 
         3067.1           57390 
         3067.4           63900 
         3067.7           76860 
           3068           94700 
         3068.3          114300 
         3068.6          131700 
         3068.9          142800 
         3069.2          145400 
         3069.5          140200 
         3069.8          130700 
         3070.1          121600 
         3070.4          117100 
         3070.7          118200 
           3071          123300 
         3071.3          128800 
         3071.6          131500 
         3071.9          130300 
         3072.2          126100 
         3072.5          121000 
         3072.8          116600 
         3073.1          113800 
         3073.4          112400 
         3073.7          111800 
           3074          111300 
         3074.3          110900 
         3074.6          111100 
         3074.9          113400 
         3075.2          120600 
         3075.5          134900 
         3075.8          156400 
         3076.1          181500 
         3076.4          203800 
         3076.7          216600 
           3077          215700 
         3077.3          201800 
         3077.6          180100 
         3077.9          157900 
         3078.2          142200 
         3078.5          136700 
         3078.8          141100 
         3079.1          151600 
         3079.4          162100 
         3079.7          166800 
           3080          162400 
         3080.3          149000 
         3080.6          129700 
         3080.9          110000 
         3081.2           94900 
         3081.5           87840 
         3081.8           89310 
         3082.1           97290 
         3082.4          108300 
         3082.7          119200 
           3083          128100 
         3083.3          135500 
         3083.6          142800 
         3083.9          150800 
         3084.2          158900 
         3084.5          165400 
         3084.8          168600 
         3085.1          167700 
         3085.4          162800 
         3085.7          154100 
           3086          142300 
         3086.3          128900 
         3086.6          116300 
         3086.9          107100 
         3087.2          102700 
         3087.5          103000 
         3087.8          106500 
         3088.1          110700 
         3088.4          113100 
         3088.7          112200 
           3089          108300 
         3089.3          102900 
         3089.6           98100 
         3089.9           94970 
         3090.2           92720 
         3090.5           89500 
         3090.8           83680 
         3091.1           74960 
         3091.4           64390 
         3091.7           53790 
           3092           44980 
         3092.3           39380 
         3092.6           37930 
         3092.9           40880 
         3093.2           47740 
         3093.5           57230 
         3093.8           67480 
         3094.1           76340 
         3094.4           81850 
         3094.7           82750 
           3095           78960 
         3095.3           71730 
         3095.6           63350 
         3095.9           56410 
         3096.2           53150 
         3096.5           54970 
         3096.8           62070 
         3097.1           73140 
         3097.4           85400 
         3097.7           95100 
           3098           98860 
         3098.3           95000 
         3098.6           84220 
         3098.9           69250 
         3099.2           53570 
         3099.5           40110 
         3099.8           30510 
         3100.1           24950 
         3100.4           22720 
         3100.7           22920 
           3101           25170 
         3101.3           38310 
         3101.6           51410 
         3101.9           69190 
         3102.2           90090 
         3102.5          111400 
         3102.8          130600 
         3103.1          146200 
         3103.4          158400 
         3103.7          167300 
           3104          172100 
         3104.3          171000 
         3104.6          162500 
         3104.9          147600 
         3105.2          130100 
         3105.5          115000 
         3105.8          106700 
         3106.1          106600 
         3106.4          112700 
         3106.7          121700 
           3107          130300 
         3107.3          136200 
         3107.6          139200 
         3107.9          139500 
         3108.2          138000 
         3108.5          135500 
         3108.8          133400 
         3109.1          133700 
         3109.4          138500 
         3109.7          149100 
           3110          166200 
         3110.3          188100 
         3110.6          212100 
         3110.9          234400 
         3111.2          251200 
         3111.5          259200 
         3111.8          256900 
         3112.1          244600 
         3112.4          224800 
         3112.7          201400 
           3113          180100 
         3113.3          166000 
         3113.6          163500 
         3113.9          174100 
         3114.2          196300 
         3114.5          225000 
         3114.8          252600 
         3115.1          271400 
         3115.4          275200 
         3115.7          261600 
           3116          232600 
         3116.3          194200 
         3116.6          154500 
         3116.9          120700 
         3117.2           97250 
         3117.5           84770 
         3117.8           80970 
         3118.1           82190 
         3118.4           85050 
         3118.7           87600 
           3119           89570 
         3119.3           92140 
         3119.6           96850 
         3119.9          104300 
         3120.2          113200 
         3120.5          120200 
         3120.8          121900 
         3121.1          116500 
         3121.4          104800 
         3121.7           90440 
           3122           77920 
         3122.3           71280 
         3122.6           72850 
         3122.9           82690 
         3123.2           98500 
         3123.5          116100 
         3123.8          130700 
         3124.1          138700 
         3124.4          139200 
         3124.7          134500 
           3125          128800 
         3125.3          126200 
         3125.6          129200 
         3125.9          137700 
         3126.2          149000 
         3126.5          158400 
         3126.8          161000 
         3127.1          153900 
         3127.4          138100 
         3127.7          118300 
           3128          101000 
         3128.3           91410 
         3128.6           91630 
         3128.9           99630 
         3129.2          110600 
         3129.5          119300 
         3129.8          121900 
         3130.1          117700 
         3130.4          108600 
         3130.7           97490 
           3131           87220 
         3131.3           79190 
         3131.6           73540 
         3131.9           69490 
         3132.2           66040 
         3132.5           62540 
         3132.8           59130 
         3133.1           57000 
         3133.4           58240 
         3133.7           64940 
           3134           78010 
         3134.3           96000 
         3134.6          115000 
         3134.9          129900 
         3135.2          137000 
         3135.5          135800 
         3135.8          129400 
         3136.1          122600 
         3136.4          119600 
         3136.7          122200 
           3137          129500 
         3137.3          139100 
         3137.6          148700 
         3137.9          156200 
         3138.2          160500 
         3138.5          161300 
         3138.8          158800 
         3139.1          153900 
         3139.4          147800 
         3139.7          142300 
           3140          139100 
         3140.3          139300 
         3140.6          142300 
         3140.9          146300 
         3141.2          149900 
         3141.5          152500 
         3141.8          154200 
         3142.1          154600 
         3142.4          152000 
         3142.7          143900 
           3143          129500 
         3143.3          109900 
         3143.6           89250 
         3143.9           72310 
         3144.2           63190 
         3144.5           64070 
         3144.8           74670 
         3145.1           92160 
         3145.4          111500 
         3145.7          126800 
           3146          133200 
         3146.3          129300 
         3146.6          117900 
         3146.9          104700 
         3147.2           96200 
         3147.5           97240 
         3147.8          109900 
         3148.1          133200 
         3148.4          162800 
         3148.7          193200 
           3149          218700 
         3149.3          236000 
         3149.6          244100 
         3149.9          244400 
         3150.2          238800 
         3150.5          228700 
         3150.8          215200 
         3151.1          199300 
         3151.4          182300 
         3151.7          166600 
           3152          154400 
         3152.3          147300 
         3152.6          144800 
         3152.9          144500 
         3153.2          143100 
         3153.5          137800 
         3153.8          128600 
         3154.1          117700 
         3154.4          108400 
         3154.7          102500 
           3155           99650 
         3155.3           97470 
         3155.6           93740 
         3155.9           87360 
         3156.2           78880 
         3156.5           69900 
         3156.8           62210 
         3157.1           57150 
         3157.4           55320 
         3157.7           56740 
           3158           60910 
         3158.3           67070 
         3158.6           74160 
         3158.9           81040 
         3159.2           86650 
         3159.5           90230 
         3159.8           91500 
         3160.1           90670 
         3160.4           88470 
         3160.7           86240 
           3161           85680 
         3161.3           88630 
         3161.6           96280 
         3161.9          108400 
         3162.2          123200 
         3162.5          136800 
         3162.8          145300 
         3163.1          145600 
         3163.4          137300 
         3163.7          122900 
           3164          106700 
         3164.3           93510 
         3164.6           86240 
         3164.9           86310 
         3165.2           93760 
         3165.5          108100 
         3165.8          128700 
         3166.1          154100 
         3166.4          181400 
         3166.7          206100 
           3167          222900 
         3167.3          227300 
         3167.6          218600 
         3167.9          199000 
         3168.2          174000 
         3168.5          150600 
         3168.8          134400 
         3169.1          129000 
         3169.4          135500 
         3169.7          153600 
           3170          181900 
         3170.3          218800 
         3170.6          260900 
         3170.9          303400 
         3171.2          340100 
         3171.5          364400 
         3171.8          371900 
         3172.1          361500 
         3172.4          337300 
         3172.7          307100 
           3173          280700 
         3173.3          265200 
         3173.6          263100 
         3173.9          271700 
         3174.2          285600 
         3174.5          300100 
         3174.8          313200 
         3175.1          324500 
         3175.4          334000 
         3175.7          340300 
           3176          340900 
         3176.3          333300 
         3176.6          317100 
         3176.9          294700 
         3177.2          270700 
         3177.5          250300 
         3177.8          236200 
         3178.1          227900 
