# Granada HRES Library
# atmosphere = Phoenix  (atmosphere model used)
# feh = -10  (value for [Fe/H] for the model.)
# logg = 1 log(cm/s2) (value for Log(G) for the model.)
# teff = 3000 K (value for the effective temperature for the model. Temperatures are given in K)
#
# column 1: WAVELENGTH (ANGSTROM), Wavelength in Angstrom
# column 2: FLUX (ERG/CM2/S/A), Flux in erg/cm2/s/A
         3000.2           13.62 
         3000.5           10.94 
         3000.8             9.2 
         3001.1           8.282 
         3001.4           7.909 
         3001.7            7.78 
           3002           7.731 
         3002.3           7.843 
         3002.6           8.427 
         3002.9           9.899 
         3003.2            12.6 
         3003.5           16.66 
         3003.8           21.88 
         3004.1           27.79 
         3004.4           33.74 
         3004.7           39.03 
           3005           43.06 
         3005.3            45.3 
         3005.6           45.46 
         3005.9           43.47 
         3006.2           39.64 
         3006.5           34.62 
         3006.8           29.22 
         3007.1           24.27 
         3007.4            20.4 
         3007.7           18.07 
           3008           17.49 
         3008.3           18.77 
         3008.6           22.01 
         3008.9           27.31 
         3009.2           34.71 
         3009.5           43.79 
         3009.8           53.49 
         3010.1           62.05 
         3010.4           67.69 
         3010.7           69.34 
           3011           67.24 
         3011.3           62.83 
         3011.6           58.03 
         3011.9            54.4 
         3012.2           52.52 
         3012.5           52.05 
         3012.8           52.22 
         3013.1           52.32 
         3013.4           52.03 
         3013.7           51.36 
           3014           50.38 
         3014.3           49.26 
         3014.6           48.14 
         3014.9           47.23 
         3015.2           46.59 
         3015.5           46.11 
         3015.8           45.52 
         3016.1           44.46 
         3016.4            42.7 
         3016.7           40.15 
           3017           37.02 
         3017.3           33.65 
         3017.6           30.45 
         3017.9           27.59 
         3018.2           24.94 
         3018.5           22.23 
         3018.8           19.25 
         3019.1           15.99 
         3019.4           12.69 
         3019.7            9.65 
           3020            7.16 
         3020.3           5.454 
         3020.6           4.708 
         3020.9           5.045 
         3021.2           6.514 
         3021.5           9.039 
         3021.8           12.38 
         3022.1           16.11 
         3022.4           19.66 
         3022.7           22.41 
           3023           23.89 
         3023.3           23.93 
         3023.6           22.76 
         3023.9           20.88 
         3024.2           18.88 
         3024.5           17.17 
         3024.8           15.91 
         3025.1           15.14 
         3025.4           14.93 
         3025.7           15.43 
           3026           16.75 
         3026.3           18.78 
         3026.6           21.13 
         3026.9           23.31 
         3027.2           25.02 
         3027.5           26.45 
         3027.8           28.19 
         3028.1           31.01 
         3028.4            35.4 
         3028.7           41.22 
           3029           47.63 
         3029.3           53.38 
         3029.6            57.3 
         3029.9            58.9 
         3030.2           58.66 
         3030.5           57.85 
         3030.8           58.14 
         3031.1           60.86 
         3031.4           66.32 
         3031.7           73.44 
           3032           79.97 
         3032.3           83.36 
         3032.6            81.9 
         3032.9           75.57 
         3033.2           66.08 
         3033.5           56.11 
         3033.8           48.21 
         3034.1           43.98 
         3034.4           43.52 
         3034.7           45.72 
           3035            48.7 
         3035.3           50.64 
         3035.6           50.26 
         3035.9           47.24 
         3036.2           42.04 
         3036.5           35.81 
         3036.8              30 
         3037.1           26.02 
         3037.4           24.86 
         3037.7           26.85 
           3038           31.55 
         3038.3           38.04 
         3038.6            45.2 
         3038.9           52.12 
         3039.2           58.13 
         3039.5           62.71 
         3039.8           65.24 
         3040.1            65.2 
         3040.4            62.5 
         3040.7           57.75 
           3041           52.34 
         3041.3           47.92 
         3041.6           45.89 
         3041.9            46.8 
         3042.2           50.15 
         3042.5           54.62 
         3042.8           58.68 
         3043.1           61.19 
         3043.4           61.81 
         3043.7           60.99 
           3044           59.57 
         3044.3           58.41 
         3044.6           58.03 
         3044.9           58.51 
         3045.2           59.42 
         3045.5            59.9 
         3045.8           58.91 
         3046.1            55.6 
         3046.4            49.8 
         3046.7           42.16 
           3047           34.06 
         3047.3           27.07 
         3047.6           22.58 
         3047.9           21.38 
         3048.2           23.62 
         3048.5           28.75 
         3048.8           35.56 
         3049.1           42.38 
         3049.4           47.41 
         3049.7           49.42 
           3050           48.21 
         3050.3           44.79 
         3050.6           40.82 
         3050.9            37.9 
         3051.2           36.97 
         3051.5           38.03 
         3051.8            40.4 
         3052.1           42.97 
         3052.4           44.61 
         3052.7           44.52 
           3053           42.53 
         3053.3           39.14 
         3053.6           35.39 
         3053.9           32.38 
         3054.2           30.86 
         3054.5           31.02 
         3054.8           32.39 
         3055.1           34.12 
         3055.4           35.35 
         3055.7           35.53 
           3056            34.6 
         3056.3           32.89 
         3056.6           30.87 
         3056.9           28.98 
         3057.2            27.4 
         3057.5           26.09 
         3057.8           24.87 
         3058.1           23.62 
         3058.4           22.44 
         3058.7           21.79 
           3059           22.34 
         3059.3           24.68 
         3059.6              29 
         3059.9           35.01 
         3060.2           42.05 
         3060.5           49.35 
         3060.8           56.23 
         3061.1           62.19 
         3061.4           66.82 
         3061.7           69.62 
           3062           69.95 
         3062.3           67.16 
         3062.6           61.01 
         3062.9           52.09 
         3063.2           41.85 
         3063.5           32.09 
         3063.8           24.36 
         3064.1           19.44 
         3064.4           17.19 
         3064.7           16.87 
           3065           17.66 
         3065.3           19.02 
         3065.6           20.81 
         3065.9           23.15 
         3066.2           26.04 
         3066.5           29.17 
         3066.8           31.95 
         3067.1            33.8 
         3067.4           34.51 
         3067.7           34.31 
           3068           33.66 
         3068.3           32.89 
         3068.6              32 
         3068.9           30.74 
         3069.2           28.92 
         3069.5           26.76 
         3069.8           24.94 
         3070.1           24.44 
         3070.4           26.06 
         3070.7           30.02 
           3071           35.83 
         3071.3           42.46 
         3071.6            48.9 
         3071.9           54.57 
         3072.2           59.43 
         3072.5           63.81 
         3072.8           67.99 
         3073.1            72.1 
         3073.4           75.95 
         3073.7           79.16 
           3074           81.27 
         3074.3              82 
         3074.6           81.66 
         3074.9           81.29 
         3075.2           82.39 
         3075.5           86.21 
         3075.8            92.9 
         3076.1           101.1 
         3076.4           108.2 
         3076.7             112 
           3077           111.3 
         3077.3           106.6 
         3077.6           99.56 
         3077.9           92.03 
         3078.2           85.31 
         3078.5           79.69 
         3078.8           74.49 
         3079.1           68.76 
         3079.4           61.86 
         3079.7           53.86 
           3080           45.38 
         3080.3           37.21 
         3080.6           29.98 
         3080.9           24.02 
         3081.2           19.44 
         3081.5           16.35 
         3081.8           14.76 
         3082.1           14.58 
         3082.4           15.47 
         3082.7           17.01 
           3083           18.86 
         3083.3              21 
         3083.6           23.63 
         3083.9           27.03 
         3084.2           31.35 
         3084.5           36.55 
         3084.8            42.4 
         3085.1           48.47 
         3085.4            54.1 
         3085.7           58.65 
           3086           61.93 
         3086.3           64.72 
         3086.6           68.58 
         3086.9           75.27 
         3087.2           85.68 
         3087.5           99.04 
         3087.8           112.8 
         3088.1           123.3 
         3088.4           127.1 
         3088.7           122.3 
           3089           109.5 
         3089.3           91.25 
         3089.6           71.05 
         3089.9           52.24 
         3090.2           36.98 
         3090.5           26.02 
         3090.8           18.95 
         3091.1           14.79 
         3091.4           12.49 
         3091.7           11.26 
           3092           10.74 
         3092.3           11.03 
         3092.6           12.46 
         3092.9            15.4 
         3093.2           19.94 
         3093.5           25.75 
         3093.8           32.17 
         3094.1           38.34 
         3094.4           43.46 
         3094.7           46.92 
           3095           48.35 
         3095.3           47.88 
         3095.6           46.34 
         3095.9           45.42 
         3096.2           47.37 
         3096.5           54.09 
         3096.8           66.05 
         3097.1           81.43 
         3097.4           96.33 
         3097.7           106.1 
           3098           107.3 
         3098.3           99.28 
         3098.6           84.34 
         3098.9           66.71 
         3099.2           50.74 
         3099.5           39.31 
         3099.8           33.26 
         3100.1            31.6 
         3100.4           32.38 
         3100.7           33.72 
           3101           34.71 
         3101.3            37.9 
         3101.6           42.92 
         3101.9           51.57 
         3102.2           63.54 
         3102.5           77.55 
         3102.8           91.81 
         3103.1           104.7 
         3103.4           115.2 
         3103.7           122.4 
           3104           125.4 
         3104.3           123.3 
         3104.6           115.7 
         3104.9           103.2 
         3105.2           87.61 
         3105.5           71.85 
         3105.8           58.49 
         3106.1           49.23 
         3106.4           44.74 
         3106.7           44.87 
           3107           48.77 
         3107.3           54.97 
         3107.6           61.58 
         3107.9           66.63 
         3108.2           68.93 
         3108.5           68.59 
         3108.8           67.02 
         3109.1           66.44 
         3109.4           68.99 
         3109.7           75.89 
           3110           86.99 
         3110.3           100.6 
         3110.6           113.7 
         3110.9             123 
         3111.2           125.6 
         3111.5           120.8 
         3111.8           109.8 
         3112.1           95.44 
         3112.4           81.19 
         3112.7           69.75 
           3113           62.83 
         3113.3           61.19 
         3113.6           65.15 
         3113.9           74.67 
         3114.2            89.2 
         3114.5           107.3 
         3114.8           126.2 
         3115.1           142.3 
         3115.4             152 
         3115.7           152.7 
           3116           144.6 
         3116.3           130.8 
         3116.6             117 
         3116.9           109.3 
         3117.2           111.9 
         3117.5             126 
         3117.8             149 
         3118.1           175.4 
         3118.4           199.3 
         3118.7           215.9 
           3119           223.2 
         3119.3           222.2 
         3119.6           216.1 
         3119.9           208.1 
         3120.2           199.5 
         3120.5           188.9 
         3120.8           174.1 
         3121.1           153.9 
         3121.4           129.7 
         3121.7           106.3 
           3122           89.08 
         3122.3           81.62 
         3122.6           83.99 
         3122.9            92.8 
         3123.2             103 
         3123.5           110.3 
         3123.8           112.8 
         3124.1           111.6 
         3124.4           109.7 
         3124.7           109.7 
           3125           112.6 
         3125.3           116.8 
         3125.6           119.7 
         3125.9           119.2 
         3126.2             115 
         3126.5           108.5 
         3126.8           101.1 
         3127.1           93.78 
         3127.4            86.6 
         3127.7           79.41 
           3128           72.33 
         3128.3           65.87 
         3128.6           60.71 
         3128.9           57.61 
         3129.2           57.29 
         3129.5           60.36 
         3129.8           67.45 
         3130.1           79.21 
         3130.4           96.09 
         3130.7           117.6 
           3131           141.1 
         3131.3           162.4 
         3131.6           176.2 
         3131.9             179 
         3132.2           170.8 
         3132.5           154.8 
         3132.8           136.4 
         3133.1             120 
         3133.4           108.6 
         3133.7           103.8 
           3134           105.9 
         3134.3           113.2 
         3134.6           122.5 
         3134.9           129.2 
         3135.2             130 
         3135.5           124.5 
         3135.8           115.6 
         3136.1           107.8 
         3136.4           105.6 
         3136.7           111.6 
           3137           125.8 
         3137.3           145.2 
         3137.6           165.1 
         3137.9           180.3 
         3138.2           187.4 
         3138.5           186.4 
         3138.8           180.6 
         3139.1           174.3 
         3139.4           171.7 
         3139.7             175 
           3140           183.9 
         3140.3           195.7 
         3140.6           207.3 
         3140.9           215.4 
         3141.2             219 
         3141.5           219.2 
         3141.8           217.9 
         3142.1           215.5 
         3142.4           210.7 
         3142.7           201.8 
           3143             189 
         3143.3           174.8 
         3143.6           162.5 
         3143.9           153.8 
         3144.2           147.7 
         3144.5           141.9 
         3144.8           134.3 
         3145.1           124.4 
         3145.4             113 
         3145.7           101.4 
           3146           91.34 
         3146.3           84.47 
         3146.6           82.93 
         3146.9           88.82 
         3147.2           103.6 
         3147.5           127.8 
         3147.8           159.4 
         3148.1           194.4 
         3148.4           226.2 
         3148.7           247.7 
           3149           253.6 
         3149.3           243.8 
         3149.6           222.4 
         3149.9           196.4 
         3150.2           171.3 
         3150.5             150 
         3150.8           132.7 
         3151.1           118.1 
         3151.4           105.9 
         3151.7           96.61 
           3152              91 
         3152.3           89.32 
         3152.6           90.91 
         3152.9           94.63 
         3153.2           99.84 
         3153.5           106.9 
         3153.8             117 
         3154.1           130.3 
         3154.4           145.1 
         3154.7           157.5 
           3155           163.5 
         3155.3           161.1 
         3155.6           152.1 
         3155.9           140.8 
         3156.2           132.2 
         3156.5           129.5 
         3156.8           133.5 
         3157.1           142.7 
         3157.4           154.3 
         3157.7           165.9 
           3158           176.2 
         3158.3           184.5 
         3158.6           190.1 
         3158.9           192.4 
         3159.2           190.1 
         3159.5           183.4 
         3159.8           174.1 
         3160.1           166.3 
         3160.4           164.7 
         3160.7           171.8 
           3161           186.6 
         3161.3           205.6 
         3161.6           225.5 
         3161.9           245.2 
         3162.2           265.7 
         3162.5           287.6 
         3162.8           309.8 
         3163.1           329.1 
         3163.4           342.9 
         3163.7             351 
           3164           354.3 
         3164.3           353.8 
         3164.6           349.4 
         3164.9             341 
         3165.2           330.4 
         3165.5           321.9 
         3165.8           321.8 
         3166.1           336.1 
         3166.4           367.5 
         3166.7           413.3 
           3167           464.8 
         3167.3           508.8 
         3167.6           532.4 
         3167.9             529 
         3168.2           502.2 
         3168.5           463.8 
         3168.8           428.8 
         3169.1             406 
         3169.4           395.6 
         3169.7           389.5 
           3170           378.9 
         3170.3           359.7 
         3170.6             335 
         3170.9             312 
         3171.2           297.7 
         3171.5           294.5 
         3171.8           298.7 
         3172.1           303.9 
         3172.4             304 
         3172.7             298 
           3173           290.2 
         3173.3           287.7 
         3173.6           297.4 
         3173.9           322.4 
         3174.2           360.7 
         3174.5           406.7 
         3174.8           452.9 
         3175.1           491.5 
         3175.4           515.3 
         3175.7           518.8 
           3176           500.4 
         3176.3           463.8 
         3176.6           417.4 
         3176.9             372 
         3177.2           338.5 
         3177.5           323.9 
         3177.8           328.9 
         3178.1           347.2 
