# Granada HRES Library
# atmosphere = Phoenix  (atmosphere model used)
# feh = -10  (value for [Fe/H] for the model.)
# logg = 5.5 log(cm/s2) (value for Log(G) for the model.)
# teff = 3500 K (value for the effective temperature for the model. Temperatures are given in K)
#
# column 1: WAVELENGTH (ANGSTROM), Wavelength in Angstrom
# column 2: FLUX (ERG/CM2/S/A), Flux in erg/cm2/s/A
         3000.2           215.7 
         3000.5           200.6 
         3000.8           189.4 
         3001.1           182.4 
         3001.4           178.8 
         3001.7           176.6 
           3002             175 
         3002.3           176.2 
         3002.6             185 
         3002.9           207.9 
         3003.2           249.8 
         3003.5           312.1 
         3003.8           391.7 
         3004.1           480.3 
         3004.4           566.8 
         3004.7           639.5 
           3005           688.6 
         3005.3           707.5 
         3005.6           693.8 
         3005.9           649.5 
         3006.2           581.2 
         3006.5           499.1 
         3006.8           415.4 
         3007.1           341.4 
         3007.4           285.6 
         3007.7           252.6 
           3008           243.2 
         3008.3           255.7 
         3008.6           287.9 
         3008.9           337.9 
         3009.2           403.7 
         3009.5           482.4 
         3009.8           567.2 
         3010.1           647.3 
         3010.4           709.4 
         3010.7           743.4 
           3011           747.6 
         3011.3           731.1 
         3011.6           710.4 
         3011.9             703 
         3012.2             719 
         3012.5             757 
         3012.8           805.9 
         3013.1           850.3 
         3013.4             877 
         3013.7           879.5 
           3014           858.2 
         3014.3           819.3 
         3014.6           771.6 
         3014.9           723.4 
         3015.2           679.3 
         3015.5           640.1 
         3015.8             604 
         3016.1           568.4 
         3016.4           531.3 
         3016.7           492.1 
           3017           451.7 
         3017.3           412.2 
         3017.6           376.1 
         3017.9           344.7 
         3018.2           317.2 
         3018.5           291.6 
         3018.8           265.7 
         3019.1           238.3 
         3019.4           209.6 
         3019.7           181.4 
           3020             156 
         3020.3           136.6 
         3020.6           126.7 
         3020.9           128.6 
         3021.2           143.1 
         3021.5           168.7 
         3021.8           201.4 
         3022.1           236.2 
         3022.4             267 
         3022.7           288.8 
           3023           298.6 
         3023.3           297.5 
         3023.6           289.3 
         3023.9             279 
         3024.2             271 
         3024.5           266.4 
         3024.8           264.2 
         3025.1           263.8 
         3025.4           268.1 
         3025.7           283.7 
           3026           318.4 
         3026.3           377.7 
         3026.6           461.3 
         3026.9           563.8 
         3027.2           675.8 
         3027.5           788.3 
         3027.8           894.1 
         3028.1           989.2 
         3028.4            1072 
         3028.7            1142 
           3029            1198 
         3029.3            1236 
         3029.6            1251 
         3029.9            1240 
         3030.2            1203 
         3030.5            1143 
         3030.8            1077 
         3031.1            1023 
         3031.4            1001 
         3031.7            1025 
           3032            1093 
         3032.3            1185 
         3032.6            1276 
         3032.9            1338 
         3033.2            1357 
         3033.5            1333 
         3033.8            1279 
         3034.1            1212 
         3034.4            1144 
         3034.7            1079 
           3035            1012 
         3035.3           936.3 
         3035.6           845.5 
         3035.9           740.5 
         3036.2           628.3 
         3036.5           520.3 
         3036.8           429.1 
         3037.1           366.2 
         3037.4           339.7 
         3037.7           352.4 
           3038           401.9 
         3038.3           479.6 
         3038.6           572.2 
         3038.9           664.1 
         3039.2           740.4 
         3039.5           790.4 
         3039.8           810.9 
         3040.1           805.5 
         3040.4           782.7 
         3040.7           751.6 
           3041           719.4 
         3041.3           692.2 
         3041.6           676.3 
         3041.9           678.5 
         3042.2           702.4 
         3042.5           745.6 
         3042.8           798.9 
         3043.1           850.1 
         3043.4           888.5 
         3043.7           908.4 
           3044           909.4 
         3044.3           894.7 
         3044.6           869.2 
         3044.9           836.5 
         3045.2             798 
         3045.5           751.9 
         3045.8           695.1 
         3046.1           626.1 
         3046.4           547.5 
         3046.7           466.9 
           3047           395.1 
         3047.3           342.5 
         3047.6           316.6 
         3047.9           320.1 
         3048.2             350 
         3048.5           398.5 
         3048.8           454.4 
         3049.1           505.2 
         3049.4           540.4 
         3049.7           554.9 
           3050           552.3 
         3050.3           544.7 
         3050.6             548 
         3050.9           576.1 
         3051.2             635 
         3051.5           719.5 
         3051.8           815.2 
         3052.1           902.7 
         3052.4           962.9 
         3052.7           982.4 
           3053             958 
         3053.3           898.7 
         3053.6           823.4 
         3053.9           755.4 
         3054.2           714.1 
         3054.5           708.2 
         3054.8           732.7 
         3055.1           771.9 
         3055.4           805.4 
         3055.7           815.4 
           3056           792.2 
         3056.3           736.2 
         3056.6           655.9 
         3056.9           564.9 
         3057.2           476.9 
         3057.5           401.7 
         3057.8           344.2 
         3058.1           304.9 
         3058.4           282.8 
         3058.7           278.1 
           3059           293.4 
         3059.3           331.7 
         3059.6           393.9 
         3059.9           476.6 
         3060.2           572.6 
         3060.5           672.6 
         3060.8           768.2 
         3061.1           853.7 
         3061.4           926.7 
         3061.7             985 
           3062            1023 
         3062.3            1033 
         3062.6            1003 
         3062.9           932.4 
         3063.2           829.4 
         3063.5           713.8 
         3063.8           609.7 
         3064.1           537.1 
         3064.4           503.8 
         3064.7           505.2 
           3065           526.1 
         3065.3           548.3 
         3065.6           557.5 
         3065.9           547.7 
         3066.2           522.3 
         3066.5           489.9 
         3066.8           460.3 
         3067.1           441.5 
         3067.4             439 
         3067.7           455.4 
           3068           490.3 
         3068.3           540.5 
         3068.6           599.8 
         3068.9           661.1 
         3069.2           719.6 
         3069.5           775.3 
         3069.8           834.1 
         3070.1           904.3 
         3070.4           990.9 
         3070.7            1091 
           3071            1196 
         3071.3            1296 
         3071.6            1392 
         3071.9            1488 
         3072.2            1592 
         3072.5            1698 
         3072.8            1783 
         3073.1            1822 
         3073.4            1800 
         3073.7            1721 
           3074            1605 
         3074.3            1478 
         3074.6            1358 
         3074.9            1259 
         3075.2            1191 
         3075.5            1163 
         3075.8            1179 
         3076.1            1234 
         3076.4            1308 
         3076.7            1376 
           3077            1418 
         3077.3            1422 
         3077.6            1391 
         3077.9            1334 
         3078.2            1264 
         3078.5            1189 
         3078.8            1111 
         3079.1            1029 
         3079.4           936.4 
         3079.7           834.9 
           3080             728 
         3080.3           622.1 
         3080.6           523.3 
         3080.9           436.1 
         3081.2           363.4 
         3081.5           307.6 
         3081.8           270.5 
         3082.1           253.3 
         3082.4             256 
         3082.7             277 
           3083           313.7 
         3083.3             363 
         3083.6           421.1 
         3083.9           483.5 
         3084.2           545.7 
         3084.5           604.7 
         3084.8           659.8 
         3085.1           711.1 
         3085.4           757.1 
         3085.7           794.5 
           3086           820.8 
         3086.3           838.2 
         3086.6           854.4 
         3086.9           879.8 
         3087.2           920.7 
         3087.5           974.9 
         3087.8            1030 
         3088.1            1068 
         3088.4            1072 
         3088.7            1031 
           3089           949.3 
         3089.3           840.2 
         3089.6           722.8 
         3089.9             614 
         3090.2           523.3 
         3090.5           451.8 
         3090.8             395 
         3091.1           347.1 
         3091.4           304.3 
         3091.7             266 
           3092           234.6 
         3092.3           214.2 
         3092.6           208.9 
         3092.9             221 
         3093.2           249.7 
         3093.5             291 
         3093.8           338.9 
         3094.1             387 
         3094.4           430.2 
         3094.7           465.4 
           3095           491.7 
         3095.3           510.2 
         3095.6             524 
         3095.9           538.5 
         3096.2           560.8 
         3096.5           597.5 
         3096.8           650.3 
         3097.1           712.9 
         3097.4           770.5 
         3097.7           804.5 
           3098           800.6 
         3098.3           755.1 
         3098.6           676.9 
         3098.9           583.6 
         3099.2           494.5 
         3099.5           424.7 
         3099.8           380.8 
         3100.1           361.4 
         3100.4           359.2 
         3100.7           366.1 
           3101           378.4 
         3101.3           434.6 
         3101.6           497.6 
         3101.9           594.6 
         3102.2           727.1 
         3102.5           889.4 
         3102.8            1069 
         3103.1            1246 
         3103.4            1398 
         3103.7            1499 
           3104            1531 
         3104.3            1489 
         3104.6            1382 
         3104.9            1238 
         3105.2            1094 
         3105.5             980 
         3105.8           919.3 
         3106.1           914.8 
         3106.4           957.6 
         3106.7            1032 
           3107            1123 
         3107.3            1215 
         3107.6            1301 
         3107.9            1376 
         3108.2            1444 
         3108.5            1520 
         3108.8            1627 
         3109.1            1782 
         3109.4            1984 
         3109.7            2211 
           3110            2419 
         3110.3            2564 
         3110.6            2610 
         3110.9            2547 
         3111.2            2399 
         3111.5            2209 
         3111.8            2026 
         3112.1            1886 
         3112.4            1806 
         3112.7            1796 
           3113            1863 
         3113.3            2019 
         3113.6            2279 
         3113.9            2638 
         3114.2            3063 
         3114.5            3487 
         3114.8            3822 
         3115.1            3985 
         3115.4            3930 
         3115.7            3660 
           3116            3239 
         3116.3            2769 
         3116.6            2360 
         3116.9            2107 
         3117.2            2062 
         3117.5            2223 
         3117.8            2535 
         3118.1            2909 
         3118.4            3252 
         3118.7            3504 
           3119            3651 
         3119.3            3725 
         3119.6            3768 
         3119.9            3797 
         3120.2            3791 
         3120.5            3707 
         3120.8            3512 
         3121.1            3208 
         3121.4            2843 
         3121.7            2488 
           3122            2208 
         3122.3            2040 
         3122.6            1984 
         3122.9            2016 
         3123.2            2105 
         3123.5            2223 
         3123.8            2355 
         3124.1            2491 
         3124.4            2622 
         3124.7            2746 
           3125            2865 
         3125.3            2990 
         3125.6            3135 
         3125.9            3301 
         3126.2            3467 
         3126.5            3592 
         3126.8            3625 
         3127.1            3535 
         3127.4            3333 
         3127.7            3063 
           3128            2794 
         3128.3            2576 
         3128.6            2433 
         3128.9            2364 
         3129.2            2360 
         3129.5            2417 
         3129.8            2536 
         3130.1            2716 
         3130.4            2944 
         3130.7            3178 
           3131            3369 
         3131.3            3462 
         3131.6            3422 
         3131.9            3240 
         3132.2            2937 
         3132.5            2557 
         3132.8            2159 
         3133.1            1804 
         3133.4            1548 
         3133.7            1431 
           3134            1464 
         3134.3            1621 
         3134.6            1846 
         3134.9            2065 
         3135.2            2220 
         3135.5            2286 
         3135.8            2281 
         3136.1            2261 
         3136.4            2293 
         3136.7            2438 
           3137            2723 
         3137.3            3126 
         3137.6            3582 
         3137.9            3992 
         3138.2            4261 
         3138.5            4329 
         3138.8            4199 
         3139.1            3920 
         3139.4            3575 
         3139.7            3237 
           3140            2963 
         3140.3            2788 
         3140.6            2716 
         3140.9            2739 
         3141.2            2831 
         3141.5            2952 
         3141.8            3062 
         3142.1            3118 
         3142.4            3099 
         3142.7            3012 
           3143            2897 
         3143.3            2805 
         3143.6            2776 
         3143.9            2819 
         3144.2            2908 
         3144.5            3006 
         3144.8            3090 
         3145.1            3152 
         3145.4            3191 
         3145.7            3205 
           3146            3186 
         3146.3            3151 
         3146.6            3144 
         3146.9            3231 
         3147.2            3460 
         3147.5            3827 
         3147.8            4269 
         3148.1            4682 
         3148.4            4965 
         3148.7            5046 
           3149            4911 
         3149.3            4600 
         3149.6            4183 
         3149.9            3747 
         3150.2            3370 
         3150.5            3112 
         3150.8            3014 
         3151.1            3080 
         3151.4            3290 
         3151.7            3600 
           3152            3946 
         3152.3            4266 
         3152.6            4511 
         3152.9            4652 
         3153.2            4696 
         3153.5            4687 
         3153.8            4694 
         3154.1            4787 
         3154.4            5006 
         3154.7            5346 
           3155            5750 
         3155.3            6148 
         3155.6            6481 
         3155.9            6719 
         3156.2            6874 
         3156.5            6982 
         3156.8            7093 
         3157.1            7244 
         3157.4            7445 
         3157.7            7678 
           3158            7912 
         3158.3            8124 
         3158.6            8290 
         3158.9            8382 
         3159.2            8357 
         3159.5            8176 
         3159.8            7837 
         3160.1            7400 
         3160.4            6972 
         3160.7            6669 
           3161            6569 
         3161.3            6688 
         3161.6            6994 
         3161.9            7428 
         3162.2            7927 
         3162.5            8423 
         3162.8            8847 
         3163.1            9130 
         3163.4            9228 
         3163.7            9141 
           3164            8913 
         3164.3            8628 
         3164.6            8382 
         3164.9            8268 
         3165.2            8374 
         3165.5            8759 
         3165.8            9426 
         3166.1           10290 
         3166.4           11180 
         3166.7           11890 
           3167           12230 
         3167.3           12140 
         3167.6           11670 
         3167.9           11000 
         3168.2           10370 
         3168.5           10010 
         3168.8           10050 
         3169.1           10470 
         3169.4           11140 
         3169.7           11830 
           3170           12350 
         3170.3           12610 
         3170.6           12640 
         3170.9           12590 
         3171.2           12600 
         3171.5           12750 
         3171.8           13020 
         3172.1           13340 
         3172.4           13620 
         3172.7           13800 
           3173           13890 
         3173.3           13920 
         3173.6           13920 
         3173.9           13880 
         3174.2           13780 
         3174.5           13630 
         3174.8           13460 
         3175.1           13350 
         3175.4           13350 
         3175.7           13450 
           3176           13550 
         3176.3           13540 
         3176.6           13310 
         3176.9           12860 
         3177.2           12280 
         3177.5           11710 
         3177.8           11230 
         3178.1           10860 
