# Granada HRES Library
# atmosphere = Spectrum  (atmosphere model used)
# feh = -10  (value for [Fe/H] for the model.)
# logg = 0 log(cm/s2) (value for Log(G) for the model.)
# teff = 5250 K (value for the effective temperature for the model. Temperatures are given in K)
#
# column 1: WAVELENGTH (ANGSTROM), Wavelength in Angstrom
# column 2: FLUX (ERG/CM2/S/A), Flux in erg/cm2/s/A
         3000.2          319400 
         3000.5          317100 
         3000.8          314800 
         3001.1          312200 
         3001.4          309000 
         3001.7          305700 
           3002          302700 
         3002.3          301100 
         3002.6          302400 
         3002.9          307700 
         3003.2          317600 
         3003.5          331700 
         3003.8          349200 
         3004.1          368400 
         3004.4          387400 
         3004.7          404600 
           3005          418600 
         3005.3          428300 
         3005.6          433200 
         3005.9          433200 
         3006.2          428500 
         3006.5          420000 
         3006.8          408800 
         3007.1          396100 
         3007.4          383700 
         3007.7          373200 
           3008          366000 
         3008.3          363400 
         3008.6          365900 
         3008.9          373300 
         3009.2          384800 
         3009.5          398700 
         3009.8          413100 
         3010.1          426000 
         3010.4          435900 
         3010.7          442100 
           3011          444300 
         3011.3          443300 
         3011.6          439900 
         3011.9          435300 
         3012.2          430400 
         3012.5          425600 
         3012.8          421300 
         3013.1          417400 
         3013.4          413800 
         3013.7          410500 
           3014          407100 
         3014.3          403700 
         3014.6          400200 
         3014.9          396800 
         3015.2          393900 
         3015.5          392000 
         3015.8          391200 
         3016.1          391700 
         3016.4          393100 
         3016.7          394900 
           3017          396300 
         3017.3          396500 
         3017.6          394900 
         3017.9          390700 
         3018.2          383300 
         3018.5          372500 
         3018.8          358200 
         3019.1          341000 
         3019.4          322100 
         3019.7          303400 
           3020          287700 
         3020.3          277500 
         3020.6          275400 
         3020.9          282900 
         3021.2          299600 
         3021.5          323700 
         3021.8          351900 
         3022.1          380400 
         3022.4          405600 
         3022.7          424800 
           3023          436900 
         3023.3          441600 
         3023.6          440000 
         3023.9          433400 
         3024.2          423200 
         3024.5          411000 
         3024.8          398500 
         3025.1          387400 
         3025.4          379600 
         3025.7          376700 
           3026          379700 
         3026.3          388600 
         3026.6          402400 
         3026.9          418900 
         3027.2          435900 
         3027.5          451100 
         3027.8          462800 
         3028.1          469900 
         3028.4          472000 
         3028.7          469500 
           3029          463200 
         3029.3          454400 
         3029.6          444500 
         3029.9          434800 
         3030.2          426300 
         3030.5          419800 
         3030.8          415900 
         3031.1          414700 
         3031.4          416100 
         3031.7          419500 
           3032          424100 
         3032.3          429100 
         3032.6          433500 
         3032.9          437300 
         3033.2          440600 
         3033.5          443800 
         3033.8          447600 
         3034.1          452100 
         3034.4          457100 
         3034.7          461700 
           3035          464500 
         3035.3          463900 
         3035.6          458800 
         3035.9          448700 
         3036.2          434300 
         3036.5          417300 
         3036.8          400000 
         3037.1          385300 
         3037.4          375300 
         3037.7          371600 
           3038          374600 
         3038.3          383400 
         3038.6          396300 
         3038.9          410900 
         3039.2          424900 
         3039.5          436200 
         3039.8          443300 
         3040.1          445400 
         3040.4          442700 
         3040.7          436200 
           3041          427300 
         3041.3          417800 
         3041.6          409500 
         3041.9          403600 
         3042.2          400700 
         3042.5          400900 
         3042.8          403200 
         3043.1          406700 
         3043.4          410600 
         3043.7          414200 
           3044          417600 
         3044.3          421200 
         3044.6          425300 
         3044.9          430000 
         3045.2          434600 
         3045.5          438400 
         3045.8          440000 
         3046.1          438700 
         3046.4          434300 
         3046.7          427600 
           3047          420000 
         3047.3          413600 
         3047.6          410200 
         3047.9          410800 
         3048.2          415700 
         3048.5          424200 
         3048.8          435200 
         3049.1          447200 
         3049.4          458800 
         3049.7          469500 
           3050          479200 
         3050.3          488400 
         3050.6          497500 
         3050.9          506800 
         3051.2          515700 
         3051.5          523200 
         3051.8          528000 
         3052.1          528700 
         3052.4          524700 
         3052.7          516400 
           3053          505100 
         3053.3          492800 
         3053.6          481600 
         3053.9          473300 
         3054.2          468900 
         3054.5          468400 
         3054.8          470700 
         3055.1          473700 
         3055.4          475100 
         3055.7          473100 
           3056          466300 
         3056.3          454800 
         3056.6          439800 
         3056.9          423400 
         3057.2          407900 
         3057.5          395200 
         3057.8          386200 
         3058.1          381100 
         3058.4          379600 
         3058.7          381200 
           3059          385800 
         3059.3          393700 
         3059.6          404800 
         3059.9          418700 
         3060.2          434200 
         3060.5          449500 
         3060.8          462600 
         3061.1          472000 
         3061.4          477000 
         3061.7          477600 
           3062          474500 
         3062.3          468700 
         3062.6          461400 
         3062.9          453800 
         3063.2          446900 
         3063.5          441000 
         3063.8          436300 
         3064.1          432100 
         3064.4          427500 
         3064.7          421700 
           3065          414000 
         3065.3          404600 
         3065.6          394200 
         3065.9          384400 
         3066.2          376900 
         3066.5          373400 
         3066.8          374900 
         3067.1          382000 
         3067.4          394200 
         3067.7          410500 
           3068          429400 
         3068.3          449100 
         3068.6          467800 
         3068.9          483500 
         3069.2          495000 
         3069.5          501200 
         3069.8          502100 
         3070.1          498100 
         3070.4          490400 
         3070.7          480000 
           3071          468400 
         3071.3          457000 
         3071.6          447100 
         3071.9          439900 
         3072.2          436700 
         3072.5          437800 
         3072.8          443000 
         3073.1          450900 
         3073.4          459200 
         3073.7          465500 
           3074          467800 
         3074.3          465500 
         3074.6          459800 
         3074.9          452900 
         3075.2          447900 
         3075.5          447100 
         3075.8          451300 
         3076.1          459500 
         3076.4          469200 
         3076.7          477600 
           3077          482100 
         3077.3          481600 
         3077.6          476600 
         3077.9          469300 
         3078.2          462300 
         3078.5          458200 
         3078.8          458400 
         3079.1          463300 
         3079.4          471300 
         3079.7          480300 
           3080          487900 
         3080.3          492300 
         3080.6          492600 
         3080.9          488900 
         3081.2          482300 
         3081.5          474200 
         3081.8          466400 
         3082.1          460900 
         3082.4          458800 
         3082.7          461300 
           3083          468700 
         3083.3          480600 
         3083.6          496000 
         3083.9          513400 
         3084.2          530700 
         3084.5          545800 
         3084.8          556900 
         3085.1          562600 
         3085.4          562100 
         3085.7          555300 
           3086          542900 
         3086.3          526200 
         3086.6          506700 
         3086.9          486600 
         3087.2          468000 
         3087.5          452500 
         3087.8          441500 
         3088.1          435300 
         3088.4          433700 
         3088.7          435700 
           3089          440100 
         3089.3          446000 
         3089.6          452700 
         3089.9          459800 
         3090.2          466800 
         3090.5          472900 
         3090.8          477200 
         3091.1          478700 
         3091.4          476500 
         3091.7          470800 
           3092          462200 
         3092.3          452300 
         3092.6          443200 
         3092.9          437400 
         3093.2          436200 
         3093.5          439900 
         3093.8          447600 
         3094.1          457200 
         3094.4          466400 
         3094.7          472900 
           3095          475200 
         3095.3          472800 
         3095.6          466400 
         3095.9          457600 
         3096.2          448500 
         3096.5          441300 
         3096.8          437500 
         3097.1          437500 
         3097.4          440400 
         3097.7          444300 
           3098          446800 
         3098.3          445800 
         3098.6          440100 
         3098.9          429900 
         3099.2          416200 
         3099.5          401100 
         3099.8          386800 
         3100.1          375500 
         3100.4          368700 
         3100.7          367300 
           3101          371700 
         3101.3          381500 
         3101.6          396100 
         3101.9          414000 
         3102.2          433800 
         3102.5          453400 
         3102.8          471000 
         3103.1          484900 
         3103.4          493700 
         3103.7          496900 
           3104          495100 
         3104.3          489400 
         3104.6          481800 
         3104.9          474700 
         3105.2          470100 
         3105.5          469700 
         3105.8          474100 
         3106.1          483200 
         3106.4          495800 
         3106.7          510300 
           3107          524800 
         3107.3          537700 
         3107.6          547600 
         3107.9          553600 
         3108.2          555300 
         3108.5          553000 
         3108.8          547300 
         3109.1          539100 
         3109.4          529900 
         3109.7          521400 
           3110          515400 
         3110.3          513100 
         3110.6          515300 
         3110.9          521900 
         3111.2          531900 
         3111.5          543900 
         3111.8          556100 
         3112.1          566600 
         3112.4          574000 
         3112.7          577400 
           3113          576400 
         3113.3          571600 
         3113.6          564500 
         3113.9          556900 
         3114.2          550800 
         3114.5          547400 
         3114.8          547500 
         3115.1          550300 
         3115.4          554300 
         3115.7          557400 
           3116          557500 
         3116.3          553300 
         3116.6          544100 
         3116.9          530600 
         3117.2          514100 
         3117.5          496400 
         3117.8          479400 
         3118.1          464900 
         3118.4          453700 
         3118.7          446200 
           3119          442100 
         3119.3          441000 
         3119.6          442000 
         3119.9          444700 
         3120.2          448700 
         3120.5          453900 
         3120.8          460300 
         3121.1          467900 
         3121.4          476900 
         3121.7          487700 
           3122          500100 
         3122.3          514000 
         3122.6          528500 
         3122.9          541700 
         3123.2          551800 
         3123.5          556800 
         3123.8          555500 
         3124.1          547800 
         3124.4          535600 
         3124.7          521900 
           3125          510300 
         3125.3          504500 
         3125.6          506500 
         3125.9          516200 
         3126.2          531800 
         3126.5          549700 
         3126.8          565900 
         3127.1          577000 
         3127.4          581100 
         3127.7          577700 
           3128          568000 
         3128.3          553900 
         3128.6          537700 
         3128.9          521100 
         3129.2          505100 
         3129.5          490400 
         3129.8          477200 
         3130.1          466200 
         3130.4          457800 
         3130.7          452300 
           3131          450000 
         3131.3          450400 
         3131.6          452700 
         3131.9          456200 
         3132.2          459900 
         3132.5          463500 
         3132.8          466800 
         3133.1          470300 
         3133.4          474500 
         3133.7          480200 
           3134          487800 
         3134.3          497300 
         3134.6          508300 
         3134.9          520000 
         3135.2          531400 
         3135.5          541700 
         3135.8          550900 
         3136.1          559300 
         3136.4          567500 
         3136.7          576300 
           3137          585800 
         3137.3          595400 
         3137.6          604200 
         3137.9          611100 
         3138.2          615300 
         3138.5          616700 
         3138.8          615800 
         3139.1          613800 
         3139.4          611800 
         3139.7          610500 
           3140          610300 
         3140.3          610800 
         3140.6          610800 
         3140.9          608900 
         3141.2          603400 
         3141.5          593200 
         3141.8          578100 
         3142.1          558300 
         3142.4          535000 
         3142.7          509400 
           3143          483100 
         3143.3          457600 
         3143.6          434500 
         3143.9          415400 
         3144.2          401700 
         3144.5          394800 
         3144.8          395400 
         3145.1          403500 
         3145.4          418200 
         3145.7          437800 
           3146          460000 
         3146.3          482600 
         3146.6          503800 
         3146.9          522700 
         3147.2          539200 
         3147.5          553600 
         3147.8          566600 
         3148.1          578500 
         3148.4          589200 
         3148.7          598800 
           3149          606900 
         3149.3          613500 
         3149.6          618600 
         3149.9          622400 
         3150.2          624700 
         3150.5          625400 
         3150.8          624500 
         3151.1          622300 
         3151.4          619300 
         3151.7          616100 
           3152          613400 
         3152.3          611500 
         3152.6          610000 
         3152.9          608200 
         3153.2          605200 
         3153.5          600700 
         3153.8          594600 
         3154.1          587200 
         3154.4          579700 
         3154.7          572800 
           3155          567500 
         3155.3          564200 
         3155.6          562600 
         3155.9          562300 
         3156.2          562200 
         3156.5          561100 
         3156.8          558200 
         3157.1          553000 
         3157.4          545900 
         3157.7          537500 
           3158          529200 
         3158.3          522300 
         3158.6          517400 
         3158.9          514600 
         3159.2          513100 
         3159.5          511300 
         3159.8          507300 
         3160.1          499700 
         3160.4          488500 
         3160.7          474800 
           3161          461000 
         3161.3          449900 
         3161.6          444400 
         3161.9          446300 
         3162.2          456200 
         3162.5          473100 
         3162.8          494800 
         3163.1          518000 
         3163.4          539400 
         3163.7          556400 
           3164          567400 
         3164.3          572800 
         3164.6          573700 
         3164.9          572400 
         3165.2          570800 
         3165.5          570400 
         3165.8          571800 
         3166.1          574400 
         3166.4          577000 
         3166.7          578200 
           3167          576800 
         3167.3          572400 
         3167.6          565900 
         3167.9          559000 
         3168.2          554200 
         3168.5          553500 
         3168.8          558300 
         3169.1          568300 
         3169.4          582600 
         3169.7          599400 
           3170          616800 
         3170.3          633200 
         3170.6          647700 
         3170.9          659800 
         3171.2          669600 
         3171.5          677100 
         3171.8          682400 
         3172.1          685700 
         3172.4          686800 
         3172.7          685700 
           3173          682400 
         3173.3          677700 
         3173.6          672300 
         3173.9          667200 
         3174.2          663300 
         3174.5          661600 
         3174.8          662300 
         3175.1          665700 
         3175.4          670800 
         3175.7          676200 
           3176          680300 
         3176.3          681400 
         3176.6          678200 
         3176.9          670200 
         3177.2          658100 
         3177.5          642600 
         3177.8          625400 
         3178.1          607700 
