# Granada HRES Library
# atmosphere = Phoenix  (atmosphere model used)
# feh = 0  (value for [Fe/H] for the model.)
# logg = 5 log(cm/s2) (value for Log(G) for the model.)
# teff = 4000 K (value for the effective temperature for the model. Temperatures are given in K)
#
# column 1: WAVELENGTH (ANGSTROM), Wavelength in Angstrom
# column 2: FLUX (ERG/CM2/S/A), Flux in erg/cm2/s/A
         3000.2            4433 
         3000.5            4226 
         3000.8            4073 
         3001.1            3969 
         3001.4            3884 
         3001.7            3778 
           3002            3637 
         3002.3            3493 
         3002.6            3422 
         3002.9            3512 
         3003.2            3822 
         3003.5            4360 
         3003.8            5072 
         3004.1            5866 
         3004.4            6634 
         3004.7            7277 
           3005            7726 
         3005.3            7945 
         3005.6            7923 
         3005.9            7675 
         3006.2            7240 
         3006.5            6687 
         3006.8            6101 
         3007.1            5572 
         3007.4            5174 
         3007.7            4952 
           3008            4920 
         3008.3            5063 
         3008.6            5355 
         3008.9            5770 
         3009.2            6292 
         3009.5            6898 
         3009.8            7532 
         3010.1            8099 
         3010.4            8485 
         3010.7            8611 
           3011            8484 
         3011.3            8201 
         3011.6            7909 
         3011.9            7735 
         3012.2            7731 
         3012.5            7863 
         3012.8            8042 
         3013.1            8182 
         3013.4            8233 
         3013.7            8183 
           3014            8051 
         3014.3            7867 
         3014.6            7667 
         3014.9            7483 
         3015.2            7340 
         3015.5            7248 
         3015.8            7202 
         3016.1            7186 
         3016.4            7175 
         3016.7            7136 
           3017            7044 
         3017.3            6896 
         3017.6            6709 
         3017.9            6497 
         3018.2            6268 
         3018.5            6008 
         3018.8            5700 
         3019.1            5327 
         3019.4            4892 
         3019.7            4413 
           3020            3944 
         3020.3            3556 
         3020.6            3335 
         3020.9            3346 
         3021.2            3605 
         3021.5            4075 
         3021.8            4663 
         3022.1            5257 
         3022.4            5745 
         3022.7            6038 
           3023            6099 
         3023.3            5950 
         3023.6            5668 
         3023.9            5360 
         3024.2            5115 
         3024.5            4965 
         3024.8            4888 
         3025.1            4843 
         3025.4            4819 
         3025.7            4850 
           3026            4994 
         3026.3            5283 
         3026.6            5693 
         3026.9            6156 
         3027.2            6595 
         3027.5            6963 
         3027.8            7268 
         3028.1            7551 
         3028.4            7856 
         3028.7            8198 
           3029            8549 
         3029.3            8846 
         3029.6            9029 
         3029.9            9058 
         3030.2            8939 
         3030.5            8734 
         3030.8            8545 
         3031.1            8490 
         3031.4            8651 
         3031.7            9022 
           3032            9494 
         3032.3            9887 
         3032.6           10030 
         3032.9            9838 
         3033.2            9364 
         3033.5            8759 
         3033.8            8217 
         3034.1            7896 
         3034.4            7854 
         3034.7            8035 
           3035            8300 
         3035.3            8486 
         3035.6            8472 
         3035.9            8213 
         3036.2            7749 
         3036.5            7177 
         3036.8            6629 
         3037.1            6234 
         3037.4            6083 
         3037.7            6204 
           3038            6552 
         3038.3            7029 
         3038.6            7524 
         3038.9            7943 
         3039.2            8230 
         3039.5            8353 
         3039.8            8300 
         3040.1            8078 
         3040.4            7713 
         3040.7            7264 
           3041            6812 
         3041.3            6460 
         3041.6            6305 
         3041.9            6412 
         3042.2            6781 
         3042.5            7340 
         3042.8            7968 
         3043.1            8535 
         3043.4            8956 
         3043.7            9203 
           3044            9301 
         3044.3            9314 
         3044.6            9306 
         3044.9            9318 
         3045.2            9350 
         3045.5            9346 
         3045.8            9223 
         3046.1            8909 
         3046.4            8387 
         3046.7            7717 
           3047            7017 
         3047.3            6429 
         3047.6            6069 
         3047.9            5996 
         3048.2            6210 
         3048.5            6652 
         3048.8            7220 
         3049.1            7783 
         3049.4            8209 
         3049.7            8413 
           3050            8394 
         3050.3            8232 
         3050.6            8053 
         3050.9            7970 
         3051.2            8032 
         3051.5            8222 
         3051.8            8470 
         3052.1            8687 
         3052.4            8791 
         3052.7            8725 
           3053            8477 
         3053.3            8093 
         3053.6            7661 
         3053.9            7290 
         3054.2            7066 
         3054.5            7027 
         3054.8            7142 
         3055.1            7331 
         3055.4            7498 
         3055.7            7561 
           3056            7483 
         3056.3            7270 
         3056.6            6966 
         3056.9            6628 
         3057.2            6320 
         3057.5            6078 
         3057.8            5911 
         3058.1            5804 
         3058.4            5752 
         3058.7            5778 
           3059            5941 
         3059.3            6295 
         3059.6            6852 
         3059.9            7564 
         3060.2            8331 
         3060.5            9031 
         3060.8            9563 
         3061.1            9877 
         3061.4            9976 
         3061.7            9891 
           3062            9643 
         3062.3            9227 
         3062.6            8624 
         3062.9            7849 
         3063.2            6971 
         3063.5            6116 
         3063.8            5416 
         3064.1            4960 
         3064.4            4759 
         3064.7            4752 
           3065            4839 
         3065.3            4927 
         3065.6            4963 
         3065.9            4942 
         3066.2            4896 
         3066.5            4865 
         3066.8            4877 
         3067.1            4945 
         3067.4            5073 
         3067.7            5263 
           3068            5510 
         3068.3            5795 
         3068.6            6079 
         3068.9            6311 
         3069.2            6448 
         3069.5            6486 
         3069.8            6471 
         3070.1            6486 
         3070.4            6615 
         3070.7            6904 
           3071            7346 
         3071.3            7900 
         3071.6            8524 
         3071.9            9190 
         3072.2            9868 
         3072.5           10500 
         3072.8           10990 
         3073.1           11240 
         3073.4           11240 
         3073.7           11040 
           3074           10740 
         3074.3           10440 
         3074.6           10180 
         3074.9           10010 
         3075.2            9972 
         3075.5           10110 
         3075.8           10450 
         3076.1           10930 
         3076.4           11420 
         3076.7           11770 
           3077           11890 
         3077.3           11770 
         3077.6           11490 
         3077.9           11170 
         3078.2           10870 
         3078.5           10640 
         3078.8           10440 
         3079.1           10170 
         3079.4            9780 
         3079.7            9248 
           3080            8604 
         3080.3            7905 
         3080.6            7207 
         3080.9            6560 
         3081.2            6007 
         3081.5            5586 
         3081.8            5328 
         3082.1            5236 
         3082.4            5280 
         3082.7            5408 
           3083            5577 
         3083.3            5770 
         3083.6            5995 
         3083.9            6260 
         3084.2            6557 
         3084.5            6872 
         3084.8            7188 
         3085.1            7493 
         3085.4            7766 
         3085.7            7979 
           3086            8122 
         3086.3            8235 
         3086.6            8407 
         3086.9            8738 
         3087.2            9282 
         3087.5           10000 
         3087.8           10750 
         3088.1           11340 
         3088.4           11560 
         3088.7           11310 
           3089           10620 
         3089.3            9653 
         3089.6            8607 
         3089.9            7660 
         3090.2            6908 
         3090.5            6354 
         3090.8            5945 
         3091.1            5605 
         3091.4            5278 
         3091.7            4942 
           3092            4623 
         3092.3            4393 
         3092.6            4342 
         3092.9            4533 
         3093.2            4964 
         3093.5            5561 
         3093.8            6202 
         3094.1            6761 
         3094.4            7150 
         3094.7            7330 
           3095            7313 
         3095.3            7148 
         3095.6            6917 
         3095.9            6724 
         3096.2            6680 
         3096.5            6871 
         3096.8            7312 
         3097.1            7919 
         3097.4            8520 
         3097.7            8908 
           3098            8931 
         3098.3            8551 
         3098.6            7857 
         3098.9            7031 
         3099.2            6281 
         3099.5            5770 
         3099.8            5573 
         3100.1            5662 
         3100.4            5929 
         3100.7            6241 
           3101            6504 
         3101.3            6876 
         3101.6            7140 
         3101.9            7556 
         3102.2            8143 
         3102.5            8852 
         3102.8            9596 
         3103.1           10280 
         3103.4           10830 
         3103.7           11170 
           3104           11260 
         3104.3           11060 
         3104.6           10590 
         3104.9            9912 
         3105.2            9136 
         3105.5            8409 
         3105.8            7850 
         3106.1            7523 
         3106.4            7434 
         3106.7            7547 
           3107            7802 
         3107.3            8131 
         3107.6            8462 
         3107.9            8729 
         3108.2            8899 
         3108.5            8993 
         3108.8            9076 
         3109.1            9234 
         3109.4            9530 
         3109.7            9983 
           3110           10550 
         3110.3           11130 
         3110.6           11620 
         3110.9           11880 
         3111.2           11860 
         3111.5           11560 
         3111.8           11100 
         3112.1           10600 
         3112.4           10220 
         3112.7           10040 
           3113           10170 
         3113.3           10620 
         3113.6           11460 
         3113.9           12630 
         3114.2           14050 
         3114.5           15530 
         3114.8           16860 
         3115.1           17750 
         3115.4           18000 
         3115.7           17510 
           3116           16370 
         3116.3           14850 
         3116.6           13330 
         3116.9           12160 
         3117.2           11600 
         3117.5           11690 
         3117.8           12280 
         3118.1           13120 
         3118.4           13920 
         3118.7           14520 
           3119           14890 
         3119.3           15180 
         3119.6           15530 
         3119.9           16010 
         3120.2           16520 
         3120.5           16790 
         3120.8           16530 
         3121.1           15620 
         3121.4           14160 
         3121.7           12500 
           3122           11040 
         3122.3           10120 
         3122.6            9796 
         3122.9            9987 
         3123.2           10480 
         3123.5           11040 
         3123.8           11550 
         3124.1           11960 
         3124.4           12300 
         3124.7           12640 
           3125           13010 
         3125.3           13450 
         3125.6           13950 
         3125.9           14510 
         3126.2           15110 
         3126.5           15620 
         3126.8           15880 
         3127.1           15710 
         3127.4           15050 
         3127.7           13990 
           3128           12800 
         3128.3           11710 
         3128.6           10910 
         3128.9           10410 
         3129.2           10210 
         3129.5           10290 
         3129.8           10630 
         3130.1           11270 
         3130.4           12200 
         3130.7           13410 
           3131           14700 
         3131.3           15810 
         3131.6           16440 
         3131.9           16410 
         3132.2           15720 
         3132.5           14530 
         3132.8           13140 
         3133.1           11860 
         3133.4           10920 
         3133.7           10470 
           3134           10570 
         3134.3           11120 
         3134.6           11880 
         3134.9           12570 
         3135.2           12930 
         3135.5           12880 
         3135.8           12560 
         3136.1           12240 
         3136.4           12220 
         3136.7           12690 
           3137           13700 
         3137.3           15110 
         3137.6           16650 
         3137.9           17980 
         3138.2           18760 
         3138.5           18840 
         3138.8           18290 
         3139.1           17330 
         3139.4           16250 
         3139.7           15280 
           3140           14590 
         3140.3           14220 
         3140.6           14110 
         3140.9           14170 
         3141.2           14290 
         3141.5           14440 
         3141.8           14600 
         3142.1           14700 
         3142.4           14640 
         3142.7           14360 
           3143           13860 
         3143.3           13270 
         3143.6           12770 
         3143.9           12470 
         3144.2           12370 
         3144.5           12370 
         3144.8           12380 
         3145.1           12330 
         3145.4           12210 
         3145.7           11970 
           3146           11630 
         3146.3           11300 
         3146.6           11150 
         3146.9           11420 
         3147.2           12320 
         3147.5           13860 
         3147.8           15900 
         3148.1           18040 
         3148.4           19830 
         3148.7           20810 
           3149           20750 
         3149.3           19730 
         3149.6           18070 
         3149.9           16220 
         3150.2           14550 
         3150.5           13280 
         3150.8           12480 
         3151.1           12090 
         3151.4           12040 
         3151.7           12220 
           3152           12530 
         3152.3           12860 
         3152.6           13100 
         3152.9           13190 
         3153.2           13120 
         3153.5           12970 
         3153.8           12910 
         3154.1           13080 
         3154.4           13510 
         3154.7           14110 
           3155           14680 
         3155.3           15100 
         3155.6           15370 
         3155.9           15630 
         3156.2           16050 
         3156.5           16760 
         3156.8           17800 
         3157.1           19080 
         3157.4           20500 
         3157.7           21920 
           3158           23260 
         3158.3           24470 
         3158.6           25500 
         3158.9           26180 
         3159.2           26280 
         3159.5           25590 
         3159.8           24170 
         3160.1           22320 
         3160.4           20550 
         3160.7           19330 
           3161           18890 
         3161.3           19210 
         3161.6           20130 
         3161.9           21470 
         3162.2           23040 
         3162.5           24610 
         3162.8           25850 
         3163.1           26480 
         3163.4           26380 
         3163.7           25710 
           3164           24830 
         3164.3           24090 
         3164.6           23720 
         3164.9           23800 
         3165.2           24410 
         3165.5           25650 
         3165.8           27660 
         3166.1           30430 
         3166.4           33660 
         3166.7           36790 
           3167           39070 
         3167.3           39930 
         3167.6           39170 
         3167.9           37210 
         3168.2           34860 
         3168.5           33140 
         3168.8           32790 
         3169.1           33940 
         3169.4           36040 
         3169.7           38120 
           3170           39300 
         3170.3           39110 
         3170.6           37800 
         3170.9           36020 
         3171.2           34560 
         3171.5           33830 
         3171.8           33760 
         3172.1           33930 
         3172.4           33950 
         3172.7           33770 
           3173           33770 
         3173.3           34510 
         3173.6           36300 
         3173.9           38940 
         3174.2           41860 
         3174.5           44380 
         3174.8           46100 
         3175.1           47030 
         3175.4           47310 
         3175.7           47030 
           3176           46150 
         3176.3           44580 
         3176.6           42350 
         3176.9           39750 
         3177.2           37290 
         3177.5           35470 
         3177.8           34510 
         3178.1           34200 
