# Granada HRES Library
# atmosphere = Phoenix  (atmosphere model used)
# feh = -5  (value for [Fe/H] for the model.)
# logg = 1.5 log(cm/s2) (value for Log(G) for the model.)
# teff = 4500 K (value for the effective temperature for the model. Temperatures are given in K)
#
# column 1: WAVELENGTH (ANGSTROM), Wavelength in Angstrom
# column 2: FLUX (ERG/CM2/S/A), Flux in erg/cm2/s/A
         3000.2            7611 
         3000.5            6811 
         3000.8            6236 
         3001.1            5904 
         3001.4            5758 
         3001.7            5719 
           3002            5774 
         3002.3            6068 
         3002.6            6910 
         3002.9            8690 
         3003.2           11740 
         3003.5           16170 
         3003.8           21800 
         3004.1           28110 
         3004.4           34390 
         3004.7           39880 
           3005           43890 
         3005.3           45930 
         3005.6           45700 
         3005.9           43210 
         3006.2           38770 
         3006.5           33010 
         3006.8           26790 
         3007.1           20970 
         3007.4           16300 
         3007.7           13240 
           3008           11940 
         3008.3           12350 
         3008.6           14270 
         3008.9           17490 
         3009.2           21740 
         3009.5           26640 
         3009.8           31570 
         3010.1           35680 
         3010.4           38210 
         3010.7           38840 
           3011           37980 
         3011.3           36730 
         3011.6           36370 
         3011.9           37790 
         3012.2           41000 
         3012.5           45100 
         3012.8           48710 
         3013.1           50700 
         3013.4           50630 
         3013.7           48870 
           3014           46180 
         3014.3           43360 
         3014.6           40800 
         3014.9           38650 
         3015.2           36780 
         3015.5           35100 
         3015.8           33580 
         3016.1           32110 
         3016.4           30510 
         3016.7           28530 
           3017           26090 
         3017.3           23270 
         3017.6           20370 
         3017.9           17640 
         3018.2           15190 
         3018.5           12960 
         3018.8           10850 
         3019.1            8833 
         3019.4            6962 
         3019.7            5333 
           3020            4050 
         3020.3            3209 
         3020.6            2905 
         3020.9            3221 
         3021.2            4208 
         3021.5            5849 
         3021.8            8017 
         3022.1           10460 
         3022.4           12800 
         3022.7           14650 
           3023           15750 
         3023.3           16030 
         3023.6           15700 
         3023.9           15090 
         3024.2           14480 
         3024.5           13960 
         3024.8           13490 
         3025.1           13060 
         3025.4           12920 
         3025.7           13490 
           3026           15290 
         3026.3           18650 
         3026.6           23730 
         3026.9           30510 
         3027.2           38960 
         3027.5           48850 
         3027.8           59570 
         3028.1           69850 
         3028.4           78010 
         3028.7           82350 
           3029           81960 
         3029.3           76960 
         3029.6           68420 
         3029.9           58090 
         3030.2           48000 
         3030.5           40180 
         3030.8           36540 
         3031.1           38370 
         3031.4           45900 
         3031.7           57850 
           3032           71580 
         3032.3           83650 
         3032.6           91070 
         3032.9           92340 
         3033.2           87860 
         3033.5           79700 
         3033.8           70600 
         3034.1           62920 
         3034.4           57880 
         3034.7           55230 
           3035           53700 
         3035.3           51670 
         3035.6           47980 
         3035.9           42340 
         3036.2           35290 
         3036.5           27850 
         3036.8           21140 
         3037.1           16000 
         3037.4           12880 
         3037.7           11820 
           3038           12640 
         3038.3           15010 
         3038.6           18650 
         3038.9           23170 
         3039.2           28090 
         3039.5           32660 
         3039.8           36100 
         3040.1           37860 
         3040.4           37740 
         3040.7           35970 
           3041           33030 
         3041.3           29590 
         3041.6           26460 
         3041.9           24470 
         3042.2           24260 
         3042.5           26220 
         3042.8           30460 
         3043.1           37000 
         3043.4           45620 
         3043.7           55680 
           3044           65830 
         3044.3           74240 
         3044.6           79180 
         3044.9           79820 
         3045.2           76430 
         3045.5           70010 
         3045.8           61660 
         3046.1           52250 
         3046.4           42440 
         3046.7           33010 
           3047           24900 
         3047.3           19020 
         3047.6           16020 
         3047.9           16140 
         3048.2           19070 
         3048.5           24030 
         3048.8           29800 
         3049.1           34930 
         3049.4           38150 
         3049.7           38900 
           3050           37670 
         3050.3           35970 
         3050.6           35700 
         3050.9           38420 
         3051.2           44610 
         3051.5           53410 
         3051.8           62800 
         3052.1           70190 
         3052.4           73350 
         3052.7           71220 
           3053           64320 
         3053.3           54610 
         3053.6           44630 
         3053.9           36660 
         3054.2           32200 
         3054.5           31790 
         3054.8           35100 
         3055.1           40890 
         3055.4           47230 
         3055.7           51910 
           3056           53130 
         3056.3           50200 
         3056.6           43810 
         3056.9           35560 
         3057.2           27290 
         3057.5           20300 
         3057.8           15200 
         3058.1           11920 
         3058.4           10230 
         3058.7           10020 
           3059           11480 
         3059.3           15030 
         3059.6           21040 
         3059.9           29570 
         3060.2           40220 
         3060.5           52200 
         3060.8           64450 
         3061.1           76010 
         3061.4           86260 
         3061.7           94720 
           3062          100800 
         3062.3          103500 
         3062.6          101600 
         3062.9           94610 
         3063.2           83200 
         3063.5           69690 
         3063.8           57240 
         3064.1           48700 
         3064.4           45480 
         3064.7           47070 
           3065           51310 
         3065.3           55250 
         3065.6           56450 
         3065.9           53880 
         3066.2           48350 
         3066.5           42050 
         3066.8           37610 
         3067.1           37350 
         3067.4           42720 
         3067.7           53980 
           3068           70020 
         3068.3           88190 
         3068.6          104700 
         3068.9          115500 
         3069.2          118300 
         3069.5          113400 
         3069.8          103900 
         3070.1           94190 
         3070.4           88110 
         3070.7           86990 
           3071           89480 
         3071.3           92790 
         3071.6           94380 
         3071.9           93240 
         3072.2           89890 
         3072.5           85580 
         3072.8           81360 
         3073.1           77710 
         3073.4           74700 
         3073.7           72290 
           3074           70560 
         3074.3           69710 
         3074.6           70370 
         3074.9           73810 
         3075.2           81880 
         3075.5           96110 
         3075.8          116200 
         3076.1          138900 
         3076.4          158600 
         3076.7          169500 
           3077          168000 
         3077.3          154800 
         3077.6          134800 
         3077.9          114500 
         3078.2           99760 
         3078.5           93680 
         3078.8           96000 
         3079.1          103600 
         3079.4          111800 
         3079.7          116300 
           3080          114100 
         3080.3          104900 
         3080.6           90780 
         3080.9           75480 
         3081.2           62990 
         3081.5           56090 
         3081.8           55610 
         3082.1           60390 
         3082.4           68130 
         3082.7           76600 
           3083           84690 
         3083.3           92660 
         3083.6          101400 
         3083.9          111200 
         3084.2          120900 
         3084.5          128700 
         3084.8          132700 
         3085.1          132100 
         3085.4          127100 
         3085.7          118600 
           3086          108000 
         3086.3           97250 
         3086.6           88350 
         3086.9           82930 
         3087.2           81680 
         3087.5           84120 
         3087.8           88750 
         3088.1           93450 
         3088.4           96070 
         3088.7           95220 
           3089           91020 
         3089.3           85110 
         3089.6           79640 
         3089.9           75900 
         3090.2           73390 
         3090.5           70340 
         3090.8           65000 
         3091.1           56870 
         3091.4           46930 
         3091.7           36920 
           3092           28540 
         3092.3           22890 
         3092.6           20450 
         3092.9           21200 
         3093.2           24730 
         3093.5           30280 
         3093.8           36760 
         3094.1           42830 
         3094.4           47150 
         3094.7           48770 
           3095           47500 
         3095.3           44120 
         3095.6           40100 
         3095.9           37150 
         3096.2           36760 
         3096.5           39830 
         3096.8           46430 
         3097.1           55500 
         3097.4           64870 
         3097.7           71720 
           3098           73580 
         3098.3           69430 
         3098.6           60170 
         3098.9           48110 
         3099.2           35950 
         3099.5           25810 
         3099.8           18670 
         3100.1           14500 
         3100.4           12710 
         3100.7           12680 
           3101           14240 
         3101.3           24340 
         3101.6           34580 
         3101.9           48480 
         3102.2           64760 
         3102.5           81170 
         3102.8           95560 
         3103.1          106800 
         3103.4          115200 
         3103.7          121100 
           3104          124300 
         3104.3          123400 
         3104.6          117300 
         3104.9          106000 
         3105.2           92090 
         3105.5           79260 
         3105.8           70990 
         3106.1           68900 
         3106.4           72260 
         3106.7           78900 
           3107           86430 
         3107.3           93370 
         3107.6           99310 
         3107.9          104400 
         3108.2          108700 
         3108.5          112100 
         3108.8          114400 
         3109.1          115900 
         3109.4          118200 
         3109.7          123200 
           3110          132900 
         3110.3          147600 
         3110.6          166300 
         3110.9          185400 
         3111.2          201100 
         3111.5          209200 
         3111.8          207500 
         3112.1          195600 
         3112.4          176100 
         3112.7          153100 
           3113          132500 
         3113.3          119800 
         3113.6          119000 
         3113.9          131200 
         3114.2          154100 
         3114.5          182300 
         3114.8          208500 
         3115.1          225700 
         3115.4          229300 
         3115.7          217500 
           3116          192400 
         3116.3          159200 
         3116.6          124500 
         3116.9           94130 
         3117.2           71980 
         3117.5           58900 
         3117.8           53460 
         3118.1           52950 
         3118.4           54660 
         3118.7           56850 
           3119           59080 
         3119.3           62090 
         3119.6           66900 
         3119.9           73820 
         3120.2           81580 
         3120.5           87690 
         3120.8           89510 
         3121.1           85940 
         3121.4           78000 
         3121.7           68590 
           3122           61250 
         3122.3           58940 
         3122.6           63140 
         3122.9           73510 
         3123.2           87810 
         3123.5          102500 
         3123.8          113600 
         3124.1          118700 
         3124.4          118000 
         3124.7          113800 
           3125          109500 
         3125.3          108000 
         3125.6          110600 
         3125.9          116400 
         3126.2          123300 
         3126.5          127600 
         3126.8          126400 
         3127.1          118200 
         3127.4          104700 
         3127.7           89510 
           3128           77540 
         3128.3           72270 
         3128.6           74580 
         3128.9           82370 
         3129.2           91530 
         3129.5           97790 
         3129.8           98450 
         3130.1           93350 
         3130.4           84410 
         3130.7           74410 
           3131           65660 
         3131.3           59240 
         3131.6           54970 
         3131.9           51970 
         3132.2           49230 
         3132.5           46130 
         3132.8           42890 
         3133.1           40700 
         3133.4           41380 
         3133.7           46690 
           3134           57220 
         3134.3           71590 
         3134.6           86420 
         3134.9           97620 
         3135.2          102300 
         3135.5          100300 
         3135.8           94350 
         3136.1           88200 
         3136.4           85210 
         3136.7           86880 
           3137           92920 
         3137.3          102000 
         3137.6          112400 
         3137.9          122600 
         3138.2          131100 
         3138.5          137100 
         3138.8          139400 
         3139.1          137800 
         3139.4          133400 
         3139.7          128400 
           3140          125000 
         3140.3          124600 
         3140.6          126500 
         3140.9          128900 
         3141.2          130000 
         3141.5          129100 
         3141.8          126700 
         3142.1          123400 
         3142.4          118300 
         3142.7          110300 
           3143           98550 
         3143.3           84090 
         3143.6           69610 
         3143.9           58580 
         3144.2           54000 
         3144.5           57610 
         3144.8           69330 
         3145.1           86860 
         3145.4          105800 
         3145.7          120700 
           3146          126900 
         3146.3          122900 
         3146.6          111200 
         3146.9           97190 
         3147.2           87340 
         3147.5           86710 
         3147.8           97730 
         3148.1          119700 
         3148.4          148900 
         3148.7          180100 
           3149          207800 
         3149.3          228300 
         3149.6          240100 
         3149.9          243500 
         3150.2          239600 
         3150.5          229100 
         3150.8          213100 
         3151.1          193000 
         3151.4          170900 
         3151.7          149600 
           3152          132000 
         3152.3          119800 
         3152.6          113400 
         3152.9          110800 
         3153.2          108700 
         3153.5          104200 
         3153.8           96570 
         3154.1           86970 
         3154.4           78030 
         3154.7           71720 
           3155           68430 
         3155.3           66960 
         3155.6           65660 
         3155.9           63390 
         3156.2           59970 
         3156.5           56000 
         3156.8           52450 
         3157.1           50060 
         3157.4           49270 
         3157.7           50120 
           3158           52450 
         3158.3           55960 
         3158.6           60280 
         3158.9           64840 
         3159.2           68930 
         3159.5           71780 
         3159.8           72780 
         3160.1           71750 
         3160.4           69190 
         3160.7           66320 
           3161           64950 
         3161.3           67010 
         3161.6           73810 
         3161.9           85360 
         3162.2           99840 
         3162.5          113900 
         3162.8          123700 
         3163.1          126000 
         3163.4          120100 
         3163.7          107700 
           3164           92680 
         3164.3           78980 
         3164.6           69810 
         3164.9           67100 
         3165.2           71620 
         3165.5           83380 
         3165.8          101500 
         3166.1          124300 
         3166.4          148300 
         3166.7          169000 
           3167          182300 
         3167.3          185300 
         3167.6          177400 
         3167.9          161000 
         3168.2          140600 
         3168.5          121100 
         3168.8          107200 
         3169.1          101900 
         3169.4          106900 
         3169.7          122700 
           3170          149000 
         3170.3          183900 
         3170.6          224300 
         3170.9          265100 
         3171.2          300200 
         3171.5          324100 
         3171.8          332600 
         3172.1          325200 
         3172.4          305200 
         3172.7          280100 
           3173          258200 
         3173.3          246400 
         3173.6          246300 
         3173.9          255000 
         3174.2          267500 
         3174.5          280100 
         3174.8          291800 
         3175.1          304000 
         3175.4          316800 
         3175.7          327900 
           3176          333100 
         3176.3          328200 
         3176.6          311500 
         3176.9          285300 
         3177.2          254800 
         3177.5          226300 
         3177.8          203800 
         3178.1          188100 
