# Granada HRES Library
# atmosphere = Phoenix  (atmosphere model used)
# feh = 0  (value for [Fe/H] for the model.)
# logg = 4 log(cm/s2) (value for Log(G) for the model.)
# teff = 4000 K (value for the effective temperature for the model. Temperatures are given in K)
#
# column 1: WAVELENGTH (ANGSTROM), Wavelength in Angstrom
# column 2: FLUX (ERG/CM2/S/A), Flux in erg/cm2/s/A
         3000.2            2767 
         3000.5            2600 
         3000.8            2480 
         3001.1            2403 
         3001.4            2343 
         3001.7            2272 
           3002            2176 
         3002.3            2076 
         3002.6            2022 
         3002.9            2068 
         3003.2            2252 
         3003.5            2580 
         3003.8            3019 
         3004.1            3514 
         3004.4            4000 
         3004.7            4420 
           3005            4730 
         3005.3            4902 
         3005.6            4928 
         3005.9            4812 
         3006.2            4578 
         3006.5            4268 
         3006.8            3935 
         3007.1            3634 
         3007.4            3413 
         3007.7            3302 
           3008            3309 
         3008.3            3422 
         3008.6            3620 
         3008.9            3885 
         3009.2            4203 
         3009.5            4563 
         3009.8            4929 
         3010.1            5242 
         3010.4            5427 
         3010.7            5438 
           3011            5286 
         3011.3            5046 
         3011.6            4817 
         3011.9            4684 
         3012.2            4673 
         3012.5            4757 
         3012.8            4873 
         3013.1            4965 
         3013.4            5000 
         3013.7            4973 
           3014            4897 
         3014.3            4796 
         3014.6            4695 
         3014.9            4617 
         3015.2            4574 
         3015.5            4570 
         3015.8            4598 
         3016.1            4648 
         3016.4            4696 
         3016.7            4719 
           3017            4694 
         3017.3            4618 
         3017.6            4502 
         3017.9            4360 
         3018.2            4196 
         3018.5            4002 
         3018.8            3766 
         3019.1            3481 
         3019.4            3151 
         3019.7            2793 
           3020            2448 
         3020.3            2168 
         3020.6            2013 
         3020.9            2028 
         3021.2            2223 
         3021.5            2568 
         3021.8            3001 
         3022.1            3438 
         3022.4            3798 
         3022.7            4023 
           3023            4079 
         3023.3            3980 
         3023.6            3775 
         3023.9            3538 
         3024.2            3334 
         3024.5            3194 
         3024.8            3109 
         3025.1            3052 
         3025.4            3013 
         3025.7            3007 
           3026            3064 
         3026.3            3202 
         3026.6            3407 
         3026.9            3639 
         3027.2            3851 
         3027.5            4022 
         3027.8            4157 
         3028.1            4287 
         3028.4            4441 
         3028.7            4632 
           3029            4848 
         3029.3            5053 
         3029.6            5204 
         3029.9            5275 
         3030.2            5265 
         3030.5            5207 
         3030.8            5166 
         3031.1            5211 
         3031.4            5389 
         3031.7            5686 
           3032            6019 
         3032.3            6269 
         3032.6            6327 
         3032.9            6152 
         3033.2            5790 
         3033.5            5350 
         3033.8            4965 
         3034.1            4735 
         3034.4            4699 
         3034.7            4825 
           3035            5022 
         3035.3            5186 
         3035.6            5232 
         3035.9            5124 
         3036.2            4877 
         3036.5            4549 
         3036.8            4224 
         3037.1            3991 
         3037.4            3913 
         3037.7            4007 
           3038            4238 
         3038.3            4538 
         3038.6            4829 
         3038.9            5064 
         3039.2            5224 
         3039.5            5306 
         3039.8            5307 
         3040.1            5219 
         3040.4            5040 
         3040.7            4789 
           3041            4512 
         3041.3            4280 
         3041.6            4163 
         3041.9            4211 
         3042.2            4428 
         3042.5            4768 
         3042.8            5150 
         3043.1            5495 
         3043.4            5749 
         3043.7            5902 
           3044            5973 
         3044.3            6004 
         3044.6            6035 
         3044.9            6090 
         3045.2            6163 
         3045.5            6210 
         3045.8            6165 
         3046.1            5973 
         3046.4            5616 
         3046.7            5137 
           3047            4624 
         3047.3            4180 
         3047.6            3893 
         3047.9            3809 
         3048.2            3929 
         3048.5            4215 
         3048.8            4599 
         3049.1            4991 
         3049.4            5300 
         3049.7            5460 
           3050            5458 
         3050.3            5339 
         3050.6            5180 
         3050.9            5053 
         3051.2            4998 
         3051.5            5010 
         3051.8            5064 
         3052.1            5121 
         3052.4            5142 
         3052.7            5096 
           3053            4971 
         3053.3            4782 
         3053.6            4570 
         3053.9            4387 
         3054.2            4274 
         3054.5            4249 
         3054.8            4294 
         3055.1            4368 
         3055.4            4427 
         3055.7            4437 
           3056            4388 
         3056.3            4293 
         3056.6            4178 
         3056.9            4073 
         3057.2            3998 
         3057.5            3959 
         3057.8            3942 
         3058.1            3925 
         3058.4            3902 
         3058.7            3898 
           3059            3966 
         3059.3            4158 
         3059.6            4495 
         3059.9            4948 
         3060.2            5448 
         3060.5            5907 
         3060.8            6252 
         3061.1            6446 
         3061.4            6490 
         3061.7            6406 
           3062            6213 
         3062.3            5911 
         3062.6            5491 
         3062.9            4969 
         3063.2            4400 
         3063.5            3868 
         3063.8            3457 
         3064.1            3216 
         3064.4            3135 
         3064.7            3163 
           3065            3230 
         3065.3            3282 
         3065.6            3302 
         3065.9            3305 
         3066.2            3321 
         3066.5            3373 
         3066.8            3467 
         3067.1            3598 
         3067.4            3760 
         3067.7            3952 
           3068            4173 
         3068.3            4409 
         3068.6            4622 
         3068.9            4765 
         3069.2            4800 
         3069.5            4727 
         3069.8            4588 
         3070.1            4460 
         3070.4            4419 
         3070.7            4512 
           3071            4740 
         3071.3            5076 
         3071.6            5483 
         3071.9            5927 
         3072.2            6376 
         3072.5            6784 
         3072.8            7094 
         3073.1            7261 
         3073.4            7278 
         3073.7            7182 
           3074            7025 
         3074.3            6852 
         3074.6            6692 
         3074.9            6577 
         3075.2            6551 
         3075.5            6663 
         3075.8            6925 
         3076.1            7287 
         3076.4            7640 
         3076.7            7869 
           3077            7905 
         3077.3            7758 
         3077.6            7503 
         3077.9            7235 
         3078.2            7028 
         3078.5            6897 
         3078.8            6806 
         3079.1            6689 
         3079.4            6489 
         3079.7            6181 
           3080            5777 
         3080.3            5313 
         3080.6            4838 
         3080.9            4399 
         3081.2            4041 
         3081.5            3797 
         3081.8            3685 
         3082.1            3692 
         3082.4            3777 
         3082.7            3886 
           3083            3980 
         3083.3            4052 
         3083.6            4128 
         3083.9            4242 
         3084.2            4415 
         3084.5            4648 
         3084.8            4927 
         3085.1            5222 
         3085.4            5494 
         3085.7            5704 
           3086            5844 
         3086.3            5954 
         3086.6            6109 
         3086.9            6390 
         3087.2            6829 
         3087.5            7388 
         3087.8            7951 
         3088.1            8360 
         3088.4            8472 
         3088.7            8223 
           3089            7653 
         3089.3            6895 
         3089.6            6115 
         3089.9            5440 
         3090.2            4925 
         3090.5            4552 
         3090.8            4268 
         3091.1            4013 
         3091.4            3753 
         3091.7            3484 
           3092            3238 
         3092.3            3074 
         3092.6            3062 
         3092.9            3246 
         3093.2            3621 
         3093.5            4128 
         3093.8            4671 
         3094.1            5150 
         3094.4            5493 
         3094.7            5666 
           3095            5666 
         3095.3            5524 
         3095.6            5298 
         3095.9            5076 
         3096.2            4961 
         3096.5            5047 
         3096.8            5372 
         3097.1            5885 
         3097.4            6442 
         3097.7            6855 
           3098            6959 
         3098.3            6690 
         3098.6            6108 
         3098.9            5372 
         3099.2            4675 
         3099.5            4174 
         3099.8            3945 
         3100.1            3966 
         3100.4            4147 
         3100.7            4376 
           3101            4578 
         3101.3            4913 
         3101.6            5184 
         3101.9            5601 
         3102.2            6156 
         3102.5            6778 
         3102.8            7373 
         3103.1            7864 
         3103.4            8216 
         3103.7            8426 
           3104            8495 
         3104.3            8400 
         3104.6            8119 
         3104.9            7650 
         3105.2            7042 
         3105.5            6390 
         3105.8            5797 
         3106.1            5343 
         3106.4            5072 
         3106.7            4992 
           3107            5082 
         3107.3            5297 
         3107.6            5577 
         3107.9            5851 
         3108.2            6064 
         3108.5            6191 
         3108.8            6249 
         3109.1            6286 
         3109.4            6362 
         3109.7            6529 
           3110            6811 
         3110.3            7182 
         3110.6            7568 
         3110.9            7859 
         3111.2            7956 
         3111.5            7810 
         3111.8            7454 
         3112.1            6985 
         3112.4            6530 
         3112.7            6201 
           3113            6083 
         3113.3            6218 
         3113.6            6613 
         3113.9            7246 
         3114.2            8062 
         3114.5            8977 
         3114.8            9870 
         3115.1           10590 
         3115.4           10990 
         3115.7           10960 
           3116           10520 
         3116.3            9787 
         3116.6            8986 
         3116.9            8361 
         3117.2            8082 
         3117.5            8184 
         3117.8            8566 
         3118.1            9049 
         3118.4            9458 
         3118.7            9692 
           3119            9758 
         3119.3            9754 
         3119.6            9811 
         3119.9           10000 
         3120.2           10290 
         3120.5           10510 
         3120.8           10470 
         3121.1           10020 
         3121.4            9234 
         3121.7            8310 
           3122            7532 
         3122.3            7111 
         3122.6            7109 
         3122.9            7430 
         3123.2            7888 
         3123.5            8301 
         3123.8            8568 
         3124.1            8689 
         3124.4            8742 
         3124.7            8819 
           3125            8976 
         3125.3            9217 
         3125.6            9523 
         3125.9            9868 
         3126.2           10220 
         3126.5           10520 
         3126.8           10650 
         3127.1           10500 
         3127.4           10010 
         3127.7            9254 
           3128            8376 
         3128.3            7564 
         3128.6            6950 
         3128.9            6583 
         3129.2            6444 
         3129.5            6492 
         3129.8            6697 
         3130.1            7068 
         3130.4            7632 
         3130.7            8392 
           3131            9272 
         3131.3           10100 
         3131.6           10680 
         3131.9           10840 
         3132.2           10550 
         3132.5            9904 
         3132.8            9087 
         3133.1            8294 
         3133.4            7690 
         3133.7            7382 
           3134            7410 
         3134.3            7719 
         3134.6            8153 
         3134.9            8517 
         3135.2            8663 
         3135.5            8575 
         3135.8            8370 
         3136.1            8241 
         3136.4            8362 
         3136.7            8834 
           3137            9647 
         3137.3           10670 
         3137.6           11700 
         3137.9           12490 
         3138.2           12860 
         3138.5           12750 
         3138.8           12270 
         3139.1           11610 
         3139.4           10990 
         3139.7           10570 
           3140           10410 
         3140.3           10480 
         3140.6           10680 
         3140.9           10900 
         3141.2           11060 
         3141.5           11150 
         3141.8           11200 
         3142.1           11190 
         3142.4           11070 
         3142.7           10740 
           3143           10220 
         3143.3            9589 
         3143.6            8994 
         3143.9            8540 
         3144.2            8241 
         3144.5            8047 
         3144.8            7891 
         3145.1            7733 
         3145.4            7562 
         3145.7            7378 
           3146            7201 
         3146.3            7081 
         3146.6            7109 
         3146.9            7387 
         3147.2            8001 
         3147.5            8975 
         3147.8           10250 
         3148.1           11640 
         3148.4           12920 
         3148.7           13800 
           3149           14100 
         3149.3           13790 
         3149.6           13020 
         3149.9           12010 
         3150.2           10990 
         3150.5           10120 
         3150.8            9410 
         3151.1            8879 
         3151.4            8495 
         3151.7            8237 
           3152            8075 
         3152.3            7978 
         3152.6            7909 
         3152.9            7849 
         3153.2            7817 
         3153.5            7882 
         3153.8            8132 
         3154.1            8611 
         3154.4            9256 
         3154.7            9899 
           3155           10350 
         3155.3           10510 
         3155.6           10420 
         3155.9           10230 
         3156.2           10130 
         3156.5           10210 
         3156.8           10480 
         3157.1           10890 
         3157.4           11360 
         3157.7           11880 
           3158           12450 
         3158.3           13090 
         3158.6           13780 
         3158.9           14390 
         3159.2           14720 
         3159.5           14600 
         3159.8           13990 
         3160.1           13050 
         3160.4           12070 
         3160.7           11370 
           3161           11110 
         3161.3           11360 
         3161.6           12120 
         3161.9           13430 
         3162.2           15190 
         3162.5           17200 
         3162.8           19030 
         3163.1           20260 
         3163.4           20600 
         3163.7           20090 
           3164           19030 
         3164.3           17810 
         3164.6           16730 
         3164.9           15910 
         3165.2           15450 
         3165.5           15410 
         3165.8           15890 
         3166.1           16940 
         3166.4           18460 
         3166.7           20190 
           3167           21730 
         3167.3           22660 
         3167.6           22750 
         3167.9           22030 
         3168.2           20860 
         3168.5           19770 
         3168.8           19220 
         3169.1           19370 
         3169.4           20040 
         3169.7           20780 
           3170           21170 
         3170.3           21030 
         3170.6           20520 
         3170.9           20030 
         3171.2           19970 
         3171.5           20480 
         3171.8           21410 
         3172.1           22380 
         3172.4           23110 
         3172.7           23620 
           3173           24290 
         3173.3           25560 
         3173.6           27580 
         3173.9           30050 
         3174.2           32310 
         3174.5           33820 
         3174.8           34390 
         3175.1           34160 
         3175.4           33420 
         3175.7           32310 
           3176           30800 
         3176.3           28860 
         3176.6           26590 
         3176.9           24290 
         3177.2           22320 
         3177.5           20980 
         3177.8           20310 
         3178.1           20110 
