# Granada HRES Library
# atmosphere = Phoenix  (atmosphere model used)
# feh = 3  (value for [Fe/H] for the model.)
# logg = 1.5 log(cm/s2) (value for Log(G) for the model.)
# teff = 4500 K (value for the effective temperature for the model. Temperatures are given in K)
#
# column 1: WAVELENGTH (ANGSTROM), Wavelength in Angstrom
# column 2: FLUX (ERG/CM2/S/A), Flux in erg/cm2/s/A
         3000.2            2986 
         3000.5            2674 
         3000.8            2469 
         3001.1            2368 
         3001.4            2338 
         3001.7            2337 
           3002            2346 
         3002.3            2398 
         3002.6            2576 
         3002.9            2986 
         3003.2            3713 
         3003.5            4783 
         3003.8            6148 
         3004.1            7692 
         3004.4            9249 
         3004.7           10640 
           3005           11710 
         3005.3           12320 
         3005.6           12380 
         3005.9           11890 
         3006.2           10890 
         3006.5            9543 
         3006.8            8052 
         3007.1            6640 
         3007.4            5508 
         3007.7            4799 
           3008            4575 
         3008.3            4827 
         3008.6            5486 
         3008.9            6464 
         3009.2            7656 
         3009.5            8938 
         3009.8           10130 
         3010.1           11040 
         3010.4           11490 
         3010.7           11430 
           3011           11010 
         3011.3           10520 
         3011.6           10280 
         3011.9           10480 
         3012.2           11110 
         3012.5           11920 
         3012.8           12630 
         3013.1           12970 
         3013.4           12850 
         3013.7           12370 
           3014           11690 
         3014.3           11010 
         3014.6           10460 
         3014.9           10090 
         3015.2            9875 
         3015.5            9752 
         3015.8            9679 
         3016.1            9606 
         3016.4            9467 
         3016.7            9188 
           3017            8720 
         3017.3            8082 
         3017.6            7345 
         3017.9            6585 
         3018.2            5841 
         3018.5            5111 
         3018.8            4378 
         3019.1            3647 
         3019.4            2946 
         3019.7            2320 
           3020            1813 
         3020.3            1470 
         3020.6            1331 
         3020.9            1428 
         3021.2            1775 
         3021.5            2356 
         3021.8            3111 
         3022.1            3941 
         3022.4            4718 
         3022.7            5312 
           3023            5637 
         3023.3            5681 
         3023.6            5511 
         3023.9            5244 
         3024.2            4980 
         3024.5            4759 
         3024.8            4571 
         3025.1            4407 
         3025.4            4313 
         3025.7            4405 
           3026            4822 
         3026.3            5659 
         3026.6            6925 
         3026.9            8541 
         3027.2           10380 
         3027.5           12270 
         3027.8           14090 
         3028.1           15690 
         3028.4           16940 
         3028.7           17740 
           3029           17980 
         3029.3           17610 
         3029.6           16620 
         3029.9           15140 
         3030.2           13460 
         3030.5           12020 
         3030.8           11350 
         3031.1           11840 
         3031.4           13640 
         3031.7           16500 
           3032           19780 
         3032.3           22660 
         3032.6           24430 
         3032.9           24750 
         3033.2           23730 
         3033.5           21780 
         3033.8           19480 
         3034.1           17330 
         3034.4           15650 
         3034.7           14470 
           3035           13640 
         3035.3           12840 
         3035.6           11850 
         3035.9           10570 
         3036.2            9038 
         3036.5            7453 
         3036.8            6029 
         3037.1            4964 
         3037.4            4384 
         3037.7            4319 
           3038            4717 
         3038.3            5479 
         3038.6            6497 
         3038.9            7672 
         3039.2            8903 
         3039.5           10060 
         3039.8           11010 
         3040.1           11610 
         3040.4           11800 
         3040.7           11590 
           3041           11050 
         3041.3           10340 
         3041.6            9678 
         3041.9            9326 
         3042.2            9450 
         3042.5           10090 
         3042.8           11170 
         3043.1           12570 
         3043.4           14190 
         3043.7           15940 
           3044           17640 
         3044.3           19030 
         3044.6           19870 
         3044.9           19960 
         3045.2           19280 
         3045.5           17930 
         3045.8           16050 
         3046.1           13830 
         3046.4           11450 
         3046.7            9136 
           3047            7140 
         3047.3            5688 
         3047.6            4942 
         3047.9            4953 
         3048.2            5657 
         3048.5            6881 
         3048.8            8351 
         3049.1            9727 
         3049.4           10690 
         3049.7           11050 
           3050           10860 
         3050.3           10400 
         3050.6           10090 
         3050.9           10300 
         3051.2           11220 
         3051.5           12750 
         3051.8           14530 
         3052.1           16080 
         3052.4           16900 
         3052.7           16730 
           3053           15620 
         3053.3           13900 
         3053.6           12050 
         3053.9           10490 
         3054.2            9476 
         3054.5            9084 
         3054.8            9234 
         3055.1            9733 
         3055.4           10310 
         3055.7           10690 
           3056           10640 
         3056.3           10100 
         3056.6            9140 
         3056.9            7974 
         3057.2            6816 
         3057.5            5823 
         3057.8            5051 
         3058.1            4491 
         3058.4            4132 
         3058.7            4027 
           3059            4302 
         3059.3            5118 
         3059.6            6597 
         3059.9            8759 
         3060.2           11490 
         3060.5           14540 
         3060.8           17640 
         3061.1           20530 
         3061.4           23000 
         3061.7           24900 
           3062           26050 
         3062.3           26220 
         3062.6           25250 
         3062.9           23200 
         3063.2           20410 
         3063.5           17500 
         3063.8           15130 
         3064.1           13750 
         3064.4           13490 
         3064.7           14120 
           3065           15120 
         3065.3           15910 
         3065.6           16060 
         3065.9           15450 
         3066.2           14330 
         3066.5           13180 
         3066.8           12600 
         3067.1           13140 
         3067.4           15270 
         3067.7           19270 
           3068           25000 
         3068.3           31800 
         3068.6           38350 
         3068.9           43120 
         3069.2           44890 
         3069.5           43420 
         3069.8           39580 
         3070.1           34960 
         3070.4           31060 
         3070.7           28710 
           3071           27890 
         3071.3           28020 
         3071.6           28420 
         3071.9           28650 
         3072.2           28530 
         3072.5           28050 
         3072.8           27250 
         3073.1           26230 
         3073.4           25160 
         3073.7           24260 
           3074           23670 
         3074.3           23470 
         3074.6           23780 
         3074.9           24900 
         3075.2           27410 
         3075.5           31830 
         3075.8           38150 
         3076.1           45400 
         3076.4           51770 
         3076.7           55280 
           3077           54740 
         3077.3           50370 
         3077.6           43700 
         3077.9           36900 
         3078.2           31840 
         3078.5           29520 
         3078.8           29840 
         3079.1           31890 
         3079.4           34320 
         3079.7           35840 
           3080           35530 
         3080.3           33150 
         3080.6           29180 
         3080.9           24630 
         3081.2           20650 
         3081.5           18090 
         3081.8           17250 
         3082.1           17900 
         3082.4           19460 
         3082.7           21380 
           3083           23380 
         3083.3           25610 
         3083.6           28460 
         3083.9           32230 
         3084.2           36880 
         3084.5           41870 
         3084.8           46350 
         3085.1           49430 
         3085.4           50460 
         3085.7           49360 
           3086           46750 
         3086.3           43710 
         3086.6           41320 
         3086.9           40210 
         3087.2           40470 
         3087.5           41790 
         3087.8           43580 
         3088.1           45070 
         3088.4           45490 
         3088.7           44310 
           3089           41640 
         3089.3           38240 
         3089.6           35160 
         3089.9           33000 
         3090.2           31560 
         3090.5           30050 
         3090.8           27610 
         3091.1           23980 
         3091.4           19560 
         3091.7           15160 
           3092           11560 
         3092.3            9254 
         3092.6            8377 
         3092.9            8789 
         3093.2           10170 
         3093.5           12080 
         3093.8           14070 
         3094.1           15750 
         3094.4           16850 
         3094.7           17320 
           3095           17310 
         3095.3           17100 
         3095.6           16980 
         3095.9           17200 
         3096.2           18000 
         3096.5           19560 
         3096.8           21950 
         3097.1           25010 
         3097.4           28150 
         3097.7           30430 
           3098           30940 
         3098.3           29230 
         3098.6           25550 
         3098.9           20740 
         3099.2           15850 
         3099.5           11710 
         3099.8            8757 
         3100.1            6987 
         3100.4            6165 
         3100.7            6038 
           3101            6519 
         3101.3           10190 
         3101.6           14110 
         3101.9           19550 
         3102.2           26010 
         3102.5           32530 
         3102.8           38070 
         3103.1           42000 
         3103.4           44340 
         3103.7           45470 
           3104           45630 
         3104.3           44700 
         3104.6           42300 
         3104.9           38290 
         3105.2           33140 
         3105.5           27800 
         3105.8           23390 
         3106.1           20690 
         3106.4           19980 
         3106.7           21210 
           3107           24290 
         3107.3           29290 
         3107.6           36320 
         3107.9           45110 
         3108.2           54630 
         3108.5           63020 
         3108.8           68210 
         3109.1           69020 
         3109.4           65830 
         3109.7           60640 
           3110           56130 
         3110.3           54350 
         3110.6           55900 
         3110.9           59730 
         3111.2           63760 
         3111.5           65860 
         3111.8           64770 
         3112.1           60450 
         3112.4           53960 
         3112.7           47020 
           3113           41510 
         3113.3           38970 
         3113.6           40220 
         3113.9           45220 
         3114.2           52910 
         3114.5           61570 
         3114.8           69250 
         3115.1           74270 
         3115.4           75490 
         3115.7           72560 
           3116           65890 
         3116.3           56650 
         3116.6           46490 
         3116.9           37100 
         3117.2           29750 
         3117.5           25040 
         3117.8           22800 
         3118.1           22390 
         3118.4           22930 
         3118.7           23650 
           3119           24240 
         3119.3           24800 
         3119.6           25680 
         3119.9           27130 
         3120.2           28980 
         3120.5           30660 
         3120.8           31630 
         3121.1           31670 
         3121.4           31190 
         3121.7           31110 
           3122           32470 
         3122.3           36010 
         3122.6           41900 
         3122.9           49510 
         3123.2           57480 
         3123.5           64090 
         3123.8           67890 
         3124.1           68460 
         3124.4           66560 
         3124.7           63760 
           3125           61580 
         3125.3           60790 
         3125.6           61140 
         3125.9           61740 
         3126.2           61490 
         3126.5           59600 
         3126.8           55790 
         3127.1           50460 
         3127.4           44540 
         3127.7           39170 
           3128           35420 
         3128.3           33900 
         3128.6           34590 
         3128.9           36760 
         3129.2           39240 
         3129.5           40750 
         3129.8           40550 
         3130.1           38720 
         3130.4           36030 
         3130.7           33460 
           3131           31690 
         3131.3           30840 
         3131.6           30490 
         3131.9           30030 
         3132.2           28910 
         3132.5           26990 
         3132.8           24580 
         3133.1           22470 
         3133.4           21680 
         3133.7           23080 
           3134           26940 
         3134.3           32600 
         3134.6           38570 
         3134.9           43140 
         3135.2           45150 
         3135.5           44550 
         3135.8           42370 
         3136.1           40050 
         3136.4           38850 
         3136.7           39400 
           3137           41830 
         3137.3           46020 
         3137.6           51850 
         3137.9           59000 
         3138.2           66790 
         3138.5           73980 
         3138.8           79060 
         3139.1           80930 
         3139.4           79500 
         3139.7           75970 
           3140           72070 
         3140.3           69030 
         3140.6           66980 
         3140.9           65120 
         3141.2           62710 
         3141.5           59590 
         3141.8           56240 
         3142.1           53070 
         3142.4           50030 
         3142.7           46640 
           3143           42650 
         3143.3           38330 
         3143.6           34470 
         3143.9           32000 
         3144.2           31670 
         3144.5           33900 
         3144.8           38680 
         3145.1           45480 
         3145.4           53020 
         3145.7           59480 
           3146           63080 
         3146.3           62940 
         3146.6           59630 
         3146.9           54980 
         3147.2           51470 
         3147.5           51460 
         3147.8           56540 
         3148.1           67110 
         3148.4           82190 
         3148.7           99640 
           3149          116800 
         3149.3          131200 
         3149.6          141000 
         3149.9          145100 
         3150.2          143200 
         3150.5          135500 
         3150.8          123100 
         3151.1          107700 
         3151.4           91580 
         3151.7           76530 
           3152           63950 
         3152.3           54470 
         3152.6           48030 
         3152.9           43950 
         3153.2           41240 
         3153.5           38900 
         3153.8           36480 
         3154.1           34080 
         3154.4           32280 
         3154.7           31510 
           3155           31850 
         3155.3           33000 
         3155.6           34440 
         3155.9           35780 
         3156.2           36750 
         3156.5           37290 
         3156.8           37530 
         3157.1           37690 
         3157.4           38030 
         3157.7           38710 
           3158           39840 
         3158.3           41420 
         3158.6           43320 
         3158.9           45120 
         3159.2           46250 
         3159.5           46080 
         3159.8           44310 
         3160.1           41080 
         3160.4           37070 
         3160.7           33300 
           3161           30870 
         3161.3           30760 
         3161.6           33550 
         3161.9           39230 
         3162.2           46990 
         3162.5           55270 
         3162.8           62060 
         3163.1           65610 
         3163.4           65130 
         3163.7           61030 
           3164           54660 
         3164.3           47770 
         3164.6           41920 
         3164.9           38250 
         3165.2           37430 
         3165.5           39660 
         3165.8           44610 
         3166.1           51440 
         3166.4           58910 
         3166.7           65630 
           3167           70380 
         3167.3           72340 
         3167.6           71350 
         3167.9           67910 
         3168.2           63150 
         3168.5           58490 
         3168.8           55280 
         3169.1           54510 
         3169.4           56780 
         3169.7           62360 
           3170           71180 
         3170.3           82680 
         3170.6           95800 
         3170.9          109100 
         3171.2          121200 
         3171.5          130600 
         3171.8          136200 
         3172.1          137500 
         3172.4          135100 
         3172.7          131300 
           3173          128900 
         3173.3          130300 
         3173.6          135600 
         3173.9          142600 
         3174.2          148800 
         3174.5          153100 
         3174.8          156600 
         3175.1          161300 
         3175.4          168500 
         3175.7          176600 
           3176          182500 
         3176.3          182500 
         3176.6          174900 
         3176.9          160600 
         3177.2          142600 
         3177.5          124600 
         3177.8          109400 
         3178.1           98020 
