# Granada HRES Library
# atmosphere = Spectrum  (atmosphere model used)
# feh = -5  (value for [Fe/H] for the model.)
# logg = 2.5 log(cm/s2) (value for Log(G) for the model.)
# teff = 4750 K (value for the effective temperature for the model. Temperatures are given in K)
#
# column 1: WAVELENGTH (ANGSTROM), Wavelength in Angstrom
# column 2: FLUX (ERG/CM2/S/A), Flux in erg/cm2/s/A
         3000.2           28620 
         3000.5           29660 
         3000.8           31200 
         3001.1           33440 
         3001.4           36510 
         3001.7           40960 
           3002           47460 
         3002.3           57030 
         3002.6           70870 
         3002.9           90110 
         3003.2          115500 
         3003.5          146800 
         3003.8          182900 
         3004.1          221100 
         3004.4          258000 
         3004.7          289700 
           3005          312400 
         3005.3          323400 
         3005.6          321300 
         3005.9          306300 
         3006.2          280500 
         3006.5          247200 
         3006.8          210400 
         3007.1          174600 
         3007.4          143700 
         3007.7          120700 
           3008          107800 
         3008.3          105900 
         3008.6          115200 
         3008.9          134900 
         3009.2          163300 
         3009.5          197400 
         3009.8          233400 
         3010.1          267100 
         3010.4          294000 
         3010.7          311700 
           3011          319200 
         3011.3          318200 
         3011.6          311900 
         3011.9          304000 
         3012.2          297200 
         3012.5          293000 
         3012.8          291200 
         3013.1          290600 
         3013.4          289500 
         3013.7          286800 
           3014          282000 
         3014.3          275200 
         3014.6          266700 
         3014.9          256600 
         3015.2          245300 
         3015.5          232500 
         3015.8          218000 
         3016.1          201800 
         3016.4          183900 
         3016.7          164600 
           3017          144600 
         3017.3          124800 
         3017.6          105900 
         3017.9           88730 
         3018.2           73610 
         3018.5           60590 
         3018.8           49690 
         3019.1           40600 
         3019.4           33210 
         3019.7           27450 
           3020           23370 
         3020.3           21130 
         3020.6           20920 
         3020.9           23030 
         3021.2           27490 
         3021.5           34210 
         3021.8           42870 
         3022.1           52890 
         3022.4           63510 
         3022.7           73860 
           3023           83100 
         3023.3           90630 
         3023.6           96030 
         3023.9           99180 
         3024.2          100400 
         3024.5          100600 
         3024.8          101100 
         3025.1          104000 
         3025.4          111400 
         3025.7          125600 
           3026          148400 
         3026.3          179900 
         3026.6          218900 
         3026.9          262500 
         3027.2          306900 
         3027.5          347700 
         3027.8          380900 
         3028.1          403500 
         3028.4          414100 
         3028.7          413000 
           3029          401800 
         3029.3          383400 
         3029.6          361200 
         3029.9          338700 
         3030.2          319100 
         3030.5          305300 
         3030.8          299700 
         3031.1          304000 
         3031.4          318900 
         3031.7          343400 
           3032          375100 
         3032.3          410200 
         3032.6          444800 
         3032.9          475800 
         3033.2          501000 
         3033.5          519700 
         3033.8          531800 
         3034.1          537500 
         3034.4          536100 
         3034.7          526500 
           3035          507000 
         3035.3          476300 
         3035.6          434600 
         3035.9          383900 
         3036.2          328100 
         3036.5          272600 
         3036.8          223100 
         3037.1          184900 
         3037.4          161300 
         3037.7          153500 
           3038          160400 
         3038.3          178800 
         3038.6          204300 
         3038.9          231800 
         3039.2          256700 
         3039.5          275300 
         3039.8          285500 
         3040.1          287200 
         3040.4          281400 
         3040.7          270700 
           3041          258400 
         3041.3          247800 
         3041.6          242300 
         3041.9          244100 
         3042.2          254600 
         3042.5          272900 
         3042.8          297000 
         3043.1          323200 
         3043.4          347600 
         3043.7          366900 
           3044          378900 
         3044.3          382400 
         3044.6          377500 
         3044.9          364800 
         3045.2          344900 
         3045.5          319200 
         3045.8          288700 
         3046.1          255200 
         3046.4          221100 
         3046.7          189600 
           3047          164000 
         3047.3          147400 
         3047.6          142000 
         3047.9          148100 
         3048.2          164300 
         3048.5          187400 
         3048.8          213300 
         3049.1          238000 
         3049.4          258700 
         3049.7          275300 
           3050          290000 
         3050.3          306800 
         3050.6          329400 
         3050.9          360000 
         3051.2          397400 
         3051.5          436800 
         3051.8          471400 
         3052.1          494100 
         3052.4          499600 
         3052.7          486500 
           3053          457700 
         3053.3          419300 
         3053.6          379500 
         3053.9          345400 
         3054.2          321900 
         3054.5          310300 
         3054.8          308500 
         3055.1          311600 
         3055.4          313800 
         3055.7          309800 
           3056          296500 
         3056.3          273000 
         3056.6          241300 
         3056.9          205000 
         3057.2          168400 
         3057.5          135700 
         3057.8          109800 
         3058.1           92930 
         3058.4           86180 
         3058.7           90340 
           3059          105600 
         3059.3          132000 
         3059.6          168700 
         3059.9          214100 
         3060.2          265200 
         3060.5          317900 
         3060.8          367500 
         3061.1          409300 
         3061.4          438900 
         3061.7          453800 
           3062          452700 
         3062.3          436300 
         3062.6          407200 
         3062.9          369600 
         3063.2          328600 
         3063.5          289600 
         3063.8          257000 
         3064.1          233400 
         3064.4          219100 
         3064.7          212400 
           3065          209600 
         3065.3          207200 
         3065.6          202300 
         3065.9          194000 
         3066.2          183600 
         3066.5          174400 
         3066.8          170700 
         3067.1          176700 
         3067.4          195000 
         3067.7          226400 
           3068          269300 
         3068.3          319800 
         3068.6          373200 
         3068.9          424300 
         3069.2          468600 
         3069.5          503500 
         3069.8          528200 
         3070.1          543000 
         3070.4          549300 
         3070.7          548500 
           3071          541900 
         3071.3          530500 
         3071.6          516000 
         3071.9          500700 
         3072.2          487200 
         3072.5          477600 
         3072.8          473000 
         3073.1          472000 
         3073.4          472100 
         3073.7          470200 
           3074          463600 
         3074.3          451800 
         3074.6          436800 
         3074.9          422500 
         3075.2          414000 
         3075.5          414800 
         3075.8          426700 
         3076.1          447700 
         3076.4          473300 
         3076.7          497500 
           3077          515400 
         3077.3          523800 
         3077.6          522600 
         3077.9          514400 
         3078.2          502900 
         3078.5          491700 
         3078.8          482900 
         3079.1          477200 
         3079.4          472700 
         3079.7          466800 
           3080          457200 
         3080.3          442500 
         3080.6          423100 
         3080.9          400200 
         3081.2          376800 
         3081.5          355500 
         3081.8          339300 
         3082.1          330100 
         3082.4          329000 
         3082.7          337000 
           3083          354600 
         3083.3          382400 
         3083.6          420500 
         3083.9          467700 
         3084.2          521400 
         3084.5          576900 
         3084.8          627900 
         3085.1          667700 
         3085.4          690100 
         3085.7          691100 
           3086          669900 
         3086.3          629900 
         3086.6          577000 
         3086.9          519900 
         3087.2          466700 
         3087.5          423800 
         3087.8          394200 
         3088.1          377400 
         3088.4          369600 
         3088.7          365700 
           3089          360800 
         3089.3          351900 
         3089.6          337900 
         3089.9          320200 
         3090.2          301400 
         3090.5          283800 
         3090.8          268900 
         3091.1          257400 
         3091.4          248500 
         3091.7          241400 
           3092          235100 
         3092.3          229400 
         3092.6          225200 
         3092.9          224200 
         3093.2          228000 
         3093.5          237200 
         3093.8          251000 
         3094.1          267400 
         3094.4          283400 
         3094.7          295700 
           3095          302200 
         3095.3          302000 
         3095.6          296000 
         3095.9          286700 
         3096.2          277300 
         3096.5          270600 
         3096.8          268000 
         3097.1          269200 
         3097.4          271700 
         3097.7          272100 
           3098          266600 
         3098.3          253100 
         3098.6          231300 
         3098.9          203000 
         3099.2          171700 
         3099.5          141100 
         3099.8          115100 
         3100.1           96310 
         3100.4           86800 
         3100.7           87610 
           3101           99430 
         3101.3          122400 
         3101.6          156100 
         3101.9          198900 
         3102.2          248200 
         3102.5          299800 
         3102.8          349500 
         3103.1          392600 
         3103.4          425900 
         3103.7          447100 
           3104          456300 
         3104.3          455500 
         3104.6          448100 
         3104.9          438200 
         3105.2          430800 
         3105.5          429800 
         3105.8          437400 
         3106.1          453900 
         3106.4          477800 
         3106.7          506300 
           3107          535700 
         3107.3          563400 
         3107.6          586600 
         3107.9          603800 
         3108.2          613900 
         3108.5          617100 
         3108.8          614100 
         3109.1          606700 
         3109.4          597900 
         3109.7          591200 
           3110          590200 
         3110.3          597000 
         3110.6          611900 
         3110.9          632300 
         3111.2          654400 
         3111.5          672800 
         3111.8          682500 
         3112.1          680300 
         3112.4          665500 
         3112.7          639800 
           3113          607500 
         3113.3          574300 
         3113.6          546300 
         3113.9          527900 
         3114.2          521500 
         3114.5          526200 
         3114.8          538500 
         3115.1          552500 
         3115.4          562500 
         3115.7          563400 
           3116          552900 
         3116.3          530800 
         3116.6          500000 
         3116.9          464500 
         3117.2          428800 
         3117.5          396300 
         3117.8          369500 
         3118.1          349500 
         3118.4          336100 
         3118.7          329000 
           3119          327200 
         3119.3          330100 
         3119.6          337300 
         3119.9          347600 
         3120.2          358900 
         3120.5          368700 
         3120.8          373900 
         3121.1          372200 
         3121.4          363500 
         3121.7          350000 
           3122          335700 
         3122.3          325300 
         3122.6          322600 
         3122.9          329200 
         3123.2          344400 
         3123.5          365100 
         3123.8          386500 
         3124.1          404100 
         3124.4          414800 
         3124.7          418200 
           3125          416200 
         3125.3          412800 
         3125.6          411700 
         3125.9          416100 
         3126.2          426300 
         3126.5          440800 
         3126.8          456500 
         3127.1          469900 
         3127.4          478000 
         3127.7          479300 
           3128          474600 
         3128.3          465400 
         3128.6          454400 
         3128.9          443700 
         3129.2          434700 
         3129.5          427400 
         3129.8          421800 
         3130.1          417700 
         3130.4          414700 
         3130.7          412600 
           3131          410600 
         3131.3          407800 
         3131.6          403000 
         3131.9          395200 
         3132.2          384000 
         3132.5          370200 
         3132.8          355400 
         3133.1          342300 
         3133.4          334100 
         3133.7          333800 
           3134          343300 
         3134.3          362500 
         3134.6          389100 
         3134.9          418800 
         3135.2          446600 
         3135.5          468400 
         3135.8          481900 
         3136.1          487100 
         3136.4          485700 
         3136.7          480000 
           3137          472100 
         3137.3          463500 
         3137.6          454600 
         3137.9          446600 
         3138.2          440500 
         3138.5          437800 
         3138.8          440000 
         3139.1          448500 
         3139.4          463300 
         3139.7          483600 
           3140          507600 
         3140.3          532200 
         3140.6          554000 
         3140.9          569000 
         3141.2          573900 
         3141.5          566500 
         3141.8          546000 
         3142.1          512900 
         3142.4          469000 
         3142.7          417600 
           3143          362400 
         3143.3          308000 
         3143.6          258400 
         3143.9          218100 
         3144.2          189200 
         3144.5          173300 
         3144.8          169800 
         3145.1          176800 
         3145.4          191500 
         3145.7          210400 
           3146          230700 
         3146.3          250900 
         3146.6          271100 
         3146.9          292700 
         3147.2          317400 
         3147.5          346800 
         3147.8          381200 
         3148.1          419000 
         3148.4          457500 
         3148.7          493500 
           3149          524100 
         3149.3          547900 
         3149.6          564700 
         3149.9          575400 
         3150.2          581100 
         3150.5          581800 
         3150.8          577700 
         3151.1          569000 
         3151.4          556600 
         3151.7          542800 
           3152          530600 
         3152.3          522900 
         3152.6          520700 
         3152.9          523800 
         3153.2          529600 
         3153.5          535500 
         3153.8          538700 
         3154.1          538100 
         3154.4          533400 
         3154.7          525000 
           3155          513000 
         3155.3          497000 
         3155.6          475500 
         3155.9          447900 
         3156.2          413900 
         3156.5          375000 
         3156.8          334000 
         3157.1          294600 
         3157.4          260700 
         3157.7          234700 
           3158          218100 
         3158.3          210500 
         3158.6          209900 
         3158.9          213800 
         3159.2          219500 
         3159.5          224600 
         3159.8          227700 
         3160.1          228200 
         3160.4          227400 
         3160.7          227000 
           3161          229400 
         3161.3          236500 
         3161.6          249500 
         3161.9          268500 
         3162.2          291700 
         3162.5          316300 
         3162.8          339000 
         3163.1          356800 
         3163.4          367200 
         3163.7          369800 
           3164          366200 
         3164.3          359400 
         3164.6          353100 
         3164.9          350900 
         3165.2          355000 
         3165.5          365900 
         3165.8          382300 
         3166.1          401600 
         3166.4          420300 
         3166.7          434900 
           3167          442500 
         3167.3          442100 
         3167.6          434000 
         3167.9          421100 
         3168.2          407700 
         3168.5          398600 
         3168.8          398000 
         3169.1          408100 
         3169.4          428800 
         3169.7          457600 
           3170          490800 
         3170.3          524400 
         3170.6          555500 
         3170.9          582700 
         3171.2          605900 
         3171.5          625300 
         3171.8          640700 
         3172.1          651300 
         3172.4          655500 
         3172.7          652000 
           3173          641000 
         3173.3          624000 
         3173.6          604200 
         3173.9          585800 
         3174.2          572800 
         3174.5          569300 
         3174.8          576800 
         3175.1          595700 
         3175.4          623400 
         3175.7          655200 
           3176          685000 
         3176.3          706700 
         3176.6          715300 
         3176.9          708900 
         3177.2          688300 
         3177.5          656100 
         3177.8          616300 
         3178.1          572700 
