# Granada HRES Library
# atmosphere = Phoenix  (atmosphere model used)
# feh = 0  (value for [Fe/H] for the model.)
# logg = -0.5 log(cm/s2) (value for Log(G) for the model.)
# teff = 4500 K (value for the effective temperature for the model. Temperatures are given in K)
#
# column 1: WAVELENGTH (ANGSTROM), Wavelength in Angstrom
# column 2: FLUX (ERG/CM2/S/A), Flux in erg/cm2/s/A
         3000.2           113.9 
         3000.5           96.26 
         3000.8           84.83 
         3001.1           79.26 
         3001.4            77.9 
         3001.7           78.77 
           3002           81.03 
         3002.3           86.28 
         3002.6           98.64 
         3002.9           123.8 
         3003.2           167.3 
         3003.5           232.2 
         3003.8           318.2 
         3004.1           419.8 
         3004.4           527.2 
         3004.7           627.4 
           3005             707 
         3005.3           754.6 
         3005.6           762.8 
         3005.9           729.9 
         3006.2             661 
         3006.5             567 
         3006.8           462.7 
         3007.1           363.7 
         3007.4           283.7 
         3007.7             232 
           3008             213 
         3008.3           226.3 
         3008.6           269.1 
         3008.9           336.6 
         3009.2           422.8 
         3009.5           519.2 
         3009.8           612.9 
         3010.1           688.3 
         3010.4           731.7 
         3010.7           737.9 
           3011             715 
         3011.3           681.4 
         3011.6           659.2 
         3011.9           663.2 
         3012.2           694.6 
         3012.5           740.1 
         3012.8           780.3 
         3013.1           798.6 
         3013.4           788.7 
         3013.7           755.7 
           3014           711.6 
         3014.3           669.3 
         3014.6           637.1 
         3014.9           616.1 
         3015.2           601.7 
         3015.5           587.4 
         3015.8           568.3 
         3016.1             543 
         3016.4             511 
         3016.7           472.7 
           3017           428.3 
         3017.3           380.3 
         3017.6           332.3 
         3017.9           287.3 
         3018.2           246.8 
         3018.5           209.4 
         3018.8             174 
         3019.1           140.1 
         3019.4           108.8 
         3019.7           81.98 
           3020           61.22 
         3020.3           47.78 
         3020.6           42.57 
         3020.9           46.32 
         3021.2           59.44 
         3021.5           81.51 
         3021.8           110.8 
         3022.1           143.8 
         3022.4           175.8 
         3022.7           201.3 
           3023           216.6 
         3023.3           220.5 
         3023.6           215.3 
         3023.9           205.3 
         3024.2           194.8 
         3024.5           185.6 
         3024.8           178.1 
         3025.1           172.9 
         3025.4           173.5 
         3025.7           186.3 
           3026           218.8 
         3026.3           276.7 
         3026.6           360.5 
         3026.9           466.1 
         3027.2           585.1 
         3027.5           708.1 
         3027.8           826.7 
         3028.1           935.6 
         3028.4            1031 
         3028.7            1111 
           3029            1167 
         3029.3            1191 
         3029.6            1172 
         3029.9            1108 
         3030.2            1011 
         3030.5           910.8 
         3030.8           845.5 
         3031.1           853.3 
         3031.4           953.7 
         3031.7            1137 
           3032            1367 
         3032.3            1587 
         3032.6            1745 
         3032.9            1808 
         3033.2            1771 
         3033.5            1655 
         3033.8            1493 
         3034.1            1322 
         3034.4            1169 
         3034.7            1046 
           3035           946.9 
         3035.3           857.3 
         3035.6           762.3 
         3035.9           655.3 
         3036.2           539.5 
         3036.5             426 
         3036.8           327.7 
         3037.1             256 
         3037.4           217.9 
         3037.7             215 
           3038             245 
         3038.3           302.4 
         3038.6           380.6 
         3038.9           472.2 
         3039.2           568.2 
         3039.5           659.6 
         3039.8           736.9 
         3040.1           793.2 
         3040.4           824.8 
         3040.7           830.4 
           3041           812.8 
         3041.3           779.4 
         3041.6           743.6 
         3041.9             721 
         3042.2           722.1 
         3042.5           747.9 
         3042.8             791 
         3043.1           841.7 
         3043.4           893.7 
         3043.7           944.6 
           3044           990.8 
         3044.3            1026 
         3044.6            1039 
         3044.9            1024 
         3045.2           976.6 
         3045.5           900.6 
         3045.8           800.7 
         3046.1             684 
         3046.4           559.6 
         3046.7           438.5 
           3047           333.5 
         3047.3           256.3 
         3047.6           214.8 
         3047.9           212.2 
         3048.2           246.2 
         3048.5           308.9 
         3048.8           386.9 
         3049.1           462.6 
         3049.4           518.5 
         3049.7           543.1 
           3050           537.2 
         3050.3           514.5 
         3050.6           496.9 
         3050.9           505.3 
         3051.2           551.9 
         3051.5           634.6 
         3051.8           737.1 
         3052.1             833 
         3052.4           894.7 
         3052.7           902.7 
           3053             855 
         3053.3           767.7 
         3053.6           667.5 
         3053.9           581.3 
         3054.2           527.5 
         3054.5           511.7 
         3054.8           527.6 
         3055.1           560.5 
         3055.4             592 
         3055.7           605.3 
           3056           590.5 
         3056.3           547.1 
         3056.6           482.9 
         3056.9             410 
         3057.2           340.2 
         3057.5           280.8 
         3057.8           234.4 
         3058.1           200.6 
         3058.4           178.9 
         3058.7           172.5 
           3059           187.8 
         3059.3           233.2 
         3059.6           315.7 
         3059.9           436.8 
         3060.2             592 
         3060.5           770.2 
         3060.8           957.8 
         3061.1            1142 
         3061.4            1311 
         3061.7            1455 
           3062            1559 
         3062.3            1605 
         3062.6            1579 
         3062.9            1481 
         3063.2            1329 
         3063.5            1157 
         3063.8            1006 
         3064.1           909.4 
         3064.4           880.9 
         3064.7           912.1 
           3065           973.7 
         3065.3            1029 
         3065.6            1049 
         3065.9            1026 
         3066.2           974.4 
         3066.5             930 
         3066.8           937.5 
         3067.1            1045 
         3067.4            1296 
         3067.7            1718 
           3068            2299 
         3068.3            2970 
         3068.6            3608 
         3068.9            4066 
         3069.2            4235 
         3069.5            4098 
         3069.8            3741 
         3070.1            3308 
         3070.4            2934 
         3070.7            2686 
           3071            2559 
         3071.3            2495 
         3071.6            2436 
         3071.9            2351 
         3072.2            2243 
         3072.5            2131 
         3072.8            2036 
         3073.1            1967 
         3073.4            1924 
         3073.7            1896 
           3074            1872 
         3074.3            1845 
         3074.6            1829 
         3074.9            1864 
         3075.2            2014 
         3075.5            2334 
         3075.8            2832 
         3076.1            3434 
         3076.4            3999 
         3076.7            4364 
           3077            4420 
         3077.3            4157 
         3077.6            3667 
         3077.9            3097 
         3078.2            2597 
         3078.5            2265 
         3078.8            2131 
         3079.1            2161 
         3079.4            2275 
         3079.7            2379 
           3080            2396 
         3080.3            2289 
         3080.6            2076 
         3080.9            1820 
         3081.2            1596 
         3081.5            1467 
         3081.8            1455 
         3082.1            1546 
         3082.4            1697 
         3082.7            1868 
           3083            2041 
         3083.3            2236 
         3083.6            2501 
         3083.9            2875 
         3084.2            3365 
         3084.5            3923 
         3084.8            4461 
         3085.1            4870 
         3085.4            5060 
         3085.7            4998 
           3086            4728 
         3086.3            4348 
         3086.6            3963 
         3086.9            3648 
         3087.2            3430 
         3087.5            3304 
         3087.8            3251 
         3088.1            3237 
         3088.4            3221 
         3088.7            3176 
           3089            3112 
         3089.3            3077 
         3089.6            3122 
         3089.9            3247 
         3090.2            3377 
         3090.5            3392 
         3090.8            3201 
         3091.1            2795 
         3091.4            2254 
         3091.7            1703 
           3092            1255 
         3092.3           975.1 
         3092.6           876.6 
         3092.9           935.5 
         3093.2            1105 
         3093.5            1328 
         3093.8            1548 
         3094.1            1717 
         3094.4            1811 
         3094.7            1834 
           3095            1816 
         3095.3            1797 
         3095.6            1811 
         3095.9            1876 
         3096.2            2002 
         3096.5            2195 
         3096.8            2459 
         3097.1            2777 
         3097.4            3098 
         3097.7            3328 
           3098            3370 
         3098.3            3173 
         3098.6            2756 
         3098.9            2209 
         3099.2            1644 
         3099.5            1157 
         3099.8           796.2 
         3100.1           564.5 
         3100.4           436.9 
         3100.7           384.6 
           3101           393.3 
         3101.3           642.1 
         3101.6           936.7 
         3101.9            1361 
         3102.2            1889 
         3102.5            2459 
         3102.8            3004 
         3103.1            3475 
         3103.4            3853 
         3103.7            4132 
           3104            4289 
         3104.3            4276 
         3104.6            4052 
         3104.9            3623 
         3105.2            3067 
         3105.5            2510 
         3105.8            2080 
         3106.1            1860 
         3106.4            1885 
         3106.7            2149 
           3107            2641 
         3107.3            3352 
         3107.6            4270 
         3107.9            5343 
         3108.2            6451 
         3108.5            7406 
         3108.8            8010 
         3109.1            8157 
         3109.4            7907 
         3109.7            7480 
           3110            7156 
         3110.3            7136 
         3110.6            7440 
         3110.9            7903 
         3111.2            8259 
         3111.5            8272 
         3111.8            7839 
         3112.1            7023 
         3112.4            6011 
         3112.7            5041 
           3113            4335 
         3113.3            4057 
         3113.6            4282 
         3113.9            4979 
         3114.2            6016 
         3114.5            7178 
         3114.8            8230 
         3115.1            8960 
         3115.4            9218 
         3115.7            8939 
           3116            8165 
         3116.3            7032 
         3116.6            5746 
         3116.9            4525 
         3117.2            3539 
         3117.5            2882 
         3117.8            2556 
         3118.1            2491 
         3118.4            2579 
         3118.7            2721 
           3119            2857 
         3119.3            2986 
         3119.6            3131 
         3119.9            3306 
         3120.2            3483 
         3120.5            3606 
         3120.8            3638 
         3121.1            3610 
         3121.4            3617 
         3121.7            3793 
           3122            4256 
         3122.3            5065 
         3122.6            6188 
         3122.9            7495 
         3123.2            8760 
         3123.5            9712 
         3123.8           10130 
         3124.1            9934 
         3124.4            9264 
         3124.7            8392 
           3125            7605 
         3125.3            7087 
         3125.6            6856 
         3125.9            6805 
         3126.2            6774 
         3126.5            6628 
         3126.8            6305 
         3127.1            5827 
         3127.4            5276 
         3127.7            4759 
           3128            4374 
         3128.3            4176 
         3128.6            4167 
         3128.9            4288 
         3129.2            4427 
         3129.5            4473 
         3129.8            4361 
         3130.1            4112 
         3130.4            3811 
         3130.7            3560 
           3131            3419 
         3131.3            3380 
         3131.6            3383 
         3131.9            3348 
         3132.2            3213 
         3132.5            2961 
         3132.8            2632 
         3133.1            2314 
         3133.4            2126 
         3133.7            2163 
           3134            2462 
         3134.3            2966 
         3134.6            3539 
         3134.9            4023 
         3135.2            4307 
         3135.5            4388 
         3135.8            4356 
         3136.1            4355 
         3136.4            4514 
         3136.7            4911 
           3137            5571 
         3137.3            6473 
         3137.6            7552 
         3137.9            8706 
         3138.2            9784 
         3138.5           10620 
         3138.8           11050 
         3139.1           11040 
         3139.4           10680 
         3139.7           10180 
           3140            9779 
         3140.3            9573 
         3140.6            9464 
         3140.9            9235 
         3141.2            8721 
         3141.5            7917 
         3141.8            6964 
         3142.1            6047 
         3142.4            5283 
         3142.7            4692 
           3143            4247 
         3143.3            3925 
         3143.6            3735 
         3143.9            3698 
         3144.2            3837 
         3144.5            4174 
         3144.8            4727 
         3145.1            5480 
         3145.4            6346 
         3145.7            7149 
           3146            7692 
         3146.3            7842 
         3146.6            7609 
         3146.9            7158 
         3147.2            6746 
         3147.5            6647 
         3147.8            7089 
         3148.1            8195 
         3148.4            9944 
         3148.7           12170 
           3149           14590 
         3149.3           16900 
         3149.6           18760 
         3149.9           19900 
         3150.2           20120 
         3150.5           19320 
         3150.8           17640 
         3151.1           15310 
         3151.4           12750 
         3151.7           10300 
           3152            8265 
         3152.3            6761 
         3152.6            5775 
         3152.9            5185 
         3153.2            4810 
         3153.5            4500 
         3153.8            4173 
         3154.1            3849 
         3154.4            3609 
         3154.7            3535 
           3155            3664 
         3155.3            3977 
         3155.6            4401 
         3155.9            4841 
         3156.2            5208 
         3156.5            5439 
         3156.8            5536 
         3157.1            5548 
         3157.4            5549 
         3157.7            5607 
           3158            5764 
         3158.3            6024 
         3158.6            6350 
         3158.9            6653 
         3159.2            6812 
         3159.5            6709 
         3159.8            6294 
         3160.1            5610 
         3160.4            4791 
         3160.7            4016 
           3161            3462 
         3161.3            3258 
         3161.6            3465 
         3161.9            4061 
         3162.2            4943 
         3162.5            5930 
         3162.8            6807 
         3163.1            7391 
         3163.4            7580 
         3163.7            7387 
           3164            6919 
         3164.3            6328 
         3164.6            5774 
         3164.9            5409 
         3165.2            5351 
         3165.5            5665 
         3165.8            6326 
         3166.1            7217 
         3166.4            8139 
         3166.7            8869 
           3167            9225 
         3167.3            9132 
         3167.6            8656 
         3167.9            7972 
         3168.2            7309 
         3168.5            6862 
         3168.8            6740 
         3169.1            6978 
         3169.4            7582 
         3169.7            8571 
           3170            9968 
         3170.3           11740 
         3170.6           13770 
         3170.9           15850 
         3171.2           17750 
         3171.5           19220 
         3171.8           20060 
         3172.1           20200 
         3172.4           19770 
         3172.7           19140 
           3173           18770 
         3173.3           18960 
         3173.6           19710 
         3173.9           20670 
         3174.2           21470 
         3174.5           21920 
         3174.8           22230 
         3175.1           22730 
         3175.4           23630 
         3175.7           24770 
           3176           25710 
         3176.3           25920 
         3176.6           25080 
         3176.9           23250 
         3177.2           20840 
         3177.5           18330 
         3177.8           16150 
         3178.1           14440 
