# Granada HRES Library
# atmosphere = Spectrum  (atmosphere model used)
# feh = -10  (value for [Fe/H] for the model.)
# logg = 1 log(cm/s2) (value for Log(G) for the model.)
# teff = 5750 K (value for the effective temperature for the model. Temperatures are given in K)
#
# column 1: WAVELENGTH (ANGSTROM), Wavelength in Angstrom
# column 2: FLUX (ERG/CM2/S/A), Flux in erg/cm2/s/A
         3000.2        1.811e+6 
         3000.5        1.801e+6 
         3000.8        1.789e+6 
         3001.1        1.774e+6 
         3001.4        1.755e+6 
         3001.7        1.734e+6 
           3002        1.712e+6 
         3002.3        1.696e+6 
         3002.6        1.693e+6 
         3002.9        1.708e+6 
         3003.2        1.744e+6 
         3003.5          1.8e+6 
         3003.8        1.872e+6 
         3004.1        1.953e+6 
         3004.4        2.035e+6 
         3004.7        2.111e+6 
           3005        2.175e+6 
         3005.3        2.221e+6 
         3005.6        2.246e+6 
         3005.9        2.249e+6 
         3006.2        2.232e+6 
         3006.5        2.197e+6 
         3006.8        2.148e+6 
         3007.1        2.092e+6 
         3007.4        2.037e+6 
         3007.7        1.988e+6 
           3008        1.955e+6 
         3008.3        1.943e+6 
         3008.6        1.954e+6 
         3008.9        1.989e+6 
         3009.2        2.043e+6 
         3009.5        2.109e+6 
         3009.8        2.177e+6 
         3010.1        2.237e+6 
         3010.4        2.283e+6 
         3010.7         2.31e+6 
           3011        2.319e+6 
         3011.3        2.312e+6 
         3011.6        2.294e+6 
         3011.9        2.271e+6 
         3012.2        2.245e+6 
         3012.5        2.219e+6 
         3012.8        2.192e+6 
         3013.1        2.166e+6 
         3013.4         2.14e+6 
         3013.7        2.114e+6 
           3014        2.088e+6 
         3014.3        2.063e+6 
         3014.6        2.038e+6 
         3014.9        2.017e+6 
         3015.2          2.0e+6 
         3015.5        1.991e+6 
         3015.8        1.991e+6 
         3016.1        2.001e+6 
         3016.4        2.017e+6 
         3016.7        2.036e+6 
           3017        2.053e+6 
         3017.3        2.064e+6 
         3017.6        2.065e+6 
         3017.9        2.051e+6 
         3018.2        2.021e+6 
         3018.5        1.975e+6 
         3018.8        1.912e+6 
         3019.1        1.836e+6 
         3019.4        1.753e+6 
         3019.7        1.671e+6 
           3020          1.6e+6 
         3020.3        1.555e+6 
         3020.6        1.545e+6 
         3020.9        1.577e+6 
         3021.2        1.652e+6 
         3021.5         1.76e+6 
         3021.8        1.887e+6 
         3022.1        2.015e+6 
         3022.4        2.126e+6 
         3022.7        2.209e+6 
           3023        2.258e+6 
         3023.3        2.273e+6 
         3023.6        2.258e+6 
         3023.9        2.219e+6 
         3024.2        2.164e+6 
         3024.5          2.1e+6 
         3024.8        2.035e+6 
         3025.1        1.977e+6 
         3025.4        1.935e+6 
         3025.7        1.916e+6 
           3026        1.925e+6 
         3026.3        1.963e+6 
         3026.6        2.024e+6 
         3026.9        2.099e+6 
         3027.2        2.178e+6 
         3027.5         2.25e+6 
         3027.8        2.306e+6 
         3028.1        2.341e+6 
         3028.4        2.353e+6 
         3028.7        2.343e+6 
           3029        2.315e+6 
         3029.3        2.275e+6 
         3029.6         2.23e+6 
         3029.9        2.185e+6 
         3030.2        2.146e+6 
         3030.5        2.117e+6 
         3030.8          2.1e+6 
         3031.1        2.093e+6 
         3031.4        2.098e+6 
         3031.7         2.11e+6 
           3032        2.126e+6 
         3032.3         2.14e+6 
         3032.6        2.151e+6 
         3032.9        2.158e+6 
         3033.2        2.163e+6 
         3033.5        2.169e+6 
         3033.8        2.179e+6 
         3034.1        2.196e+6 
         3034.4        2.218e+6 
         3034.7        2.241e+6 
           3035        2.259e+6 
         3035.3        2.266e+6 
         3035.6        2.254e+6 
         3035.9        2.221e+6 
         3036.2        2.169e+6 
         3036.5        2.103e+6 
         3036.8        2.033e+6 
         3037.1         1.97e+6 
         3037.4        1.924e+6 
         3037.7        1.901e+6 
           3038        1.907e+6 
         3038.3        1.937e+6 
         3038.6        1.988e+6 
         3038.9        2.048e+6 
         3039.2        2.108e+6 
         3039.5        2.158e+6 
         3039.8         2.19e+6 
         3040.1        2.199e+6 
         3040.4        2.186e+6 
         3040.7        2.155e+6 
           3041        2.113e+6 
         3041.3        2.068e+6 
         3041.6        2.028e+6 
         3041.9          2.0e+6 
         3042.2        1.985e+6 
         3042.5        1.984e+6 
         3042.8        1.991e+6 
         3043.1        2.003e+6 
         3043.4        2.016e+6 
         3043.7        2.027e+6 
           3044        2.039e+6 
         3044.3        2.051e+6 
         3044.6        2.068e+6 
         3044.9         2.09e+6 
         3045.2        2.113e+6 
         3045.5        2.136e+6 
         3045.8        2.151e+6 
         3046.1        2.156e+6 
         3046.4        2.147e+6 
         3046.7        2.128e+6 
           3047        2.102e+6 
         3047.3        2.079e+6 
         3047.6        2.064e+6 
         3047.9        2.062e+6 
         3048.2        2.077e+6 
         3048.5        2.106e+6 
         3048.8        2.146e+6 
         3049.1        2.194e+6 
         3049.4        2.244e+6 
         3049.7        2.293e+6 
           3050        2.341e+6 
         3050.3        2.387e+6 
         3050.6        2.433e+6 
         3050.9        2.477e+6 
         3051.2        2.518e+6 
         3051.5         2.55e+6 
         3051.8        2.569e+6 
         3052.1         2.57e+6 
         3052.4         2.55e+6 
         3052.7        2.514e+6 
           3053        2.466e+6 
         3053.3        2.415e+6 
         3053.6        2.371e+6 
         3053.9        2.338e+6 
         3054.2        2.322e+6 
         3054.5         2.32e+6 
         3054.8        2.328e+6 
         3055.1        2.337e+6 
         3055.4        2.338e+6 
         3055.7        2.324e+6 
           3056        2.291e+6 
         3056.3        2.238e+6 
         3056.6        2.172e+6 
         3056.9        2.102e+6 
         3057.2        2.037e+6 
         3057.5        1.985e+6 
         3057.8        1.949e+6 
         3058.1        1.929e+6 
         3058.4        1.923e+6 
         3058.7        1.927e+6 
           3059        1.941e+6 
         3059.3        1.967e+6 
         3059.6        2.005e+6 
         3059.9        2.055e+6 
         3060.2        2.114e+6 
         3060.5        2.173e+6 
         3060.8        2.224e+6 
         3061.1        2.261e+6 
         3061.4         2.28e+6 
         3061.7        2.281e+6 
           3062        2.268e+6 
         3062.3        2.246e+6 
         3062.6        2.219e+6 
         3062.9        2.194e+6 
         3063.2        2.172e+6 
         3063.5        2.155e+6 
         3063.8        2.142e+6 
         3064.1        2.129e+6 
         3064.4        2.111e+6 
         3064.7        2.087e+6 
           3065        2.054e+6 
         3065.3        2.014e+6 
         3065.6        1.971e+6 
         3065.9        1.934e+6 
         3066.2         1.91e+6 
         3066.5        1.907e+6 
         3066.8        1.928e+6 
         3067.1        1.974e+6 
         3067.4        2.042e+6 
         3067.7        2.125e+6 
           3068        2.215e+6 
         3068.3        2.304e+6 
         3068.6        2.384e+6 
         3068.9        2.446e+6 
         3069.2        2.487e+6 
         3069.5        2.503e+6 
         3069.8        2.494e+6 
         3070.1        2.465e+6 
         3070.4        2.421e+6 
         3070.7        2.369e+6 
           3071        2.315e+6 
         3071.3        2.265e+6 
         3071.6        2.224e+6 
         3071.9        2.197e+6 
         3072.2        2.185e+6 
         3072.5        2.191e+6 
         3072.8        2.212e+6 
         3073.1        2.243e+6 
         3073.4        2.274e+6 
         3073.7        2.296e+6 
           3074        2.303e+6 
         3074.3        2.291e+6 
         3074.6        2.266e+6 
         3074.9        2.236e+6 
         3075.2        2.212e+6 
         3075.5        2.203e+6 
         3075.8        2.214e+6 
         3076.1        2.242e+6 
         3076.4        2.276e+6 
         3076.7        2.306e+6 
           3077        2.323e+6 
         3077.3        2.322e+6 
         3077.6        2.305e+6 
         3077.9         2.28e+6 
         3078.2        2.256e+6 
         3078.5        2.243e+6 
         3078.8        2.247e+6 
         3079.1        2.266e+6 
         3079.4        2.295e+6 
         3079.7        2.324e+6 
           3080        2.345e+6 
         3080.3         2.35e+6 
         3080.6        2.338e+6 
         3080.9         2.31e+6 
         3081.2        2.271e+6 
         3081.5        2.228e+6 
         3081.8        2.189e+6 
         3082.1        2.161e+6 
         3082.4        2.151e+6 
         3082.7        2.162e+6 
           3083        2.195e+6 
         3083.3         2.25e+6 
         3083.6        2.321e+6 
         3083.9        2.402e+6 
         3084.2        2.482e+6 
         3084.5        2.552e+6 
         3084.8        2.603e+6 
         3085.1         2.63e+6 
         3085.4         2.63e+6 
         3085.7        2.603e+6 
           3086        2.554e+6 
         3086.3         2.49e+6 
         3086.6        2.417e+6 
         3086.9        2.343e+6 
         3087.2        2.277e+6 
         3087.5        2.222e+6 
         3087.8        2.182e+6 
         3088.1        2.158e+6 
         3088.4        2.147e+6 
         3088.7        2.147e+6 
           3089        2.155e+6 
         3089.3         2.17e+6 
         3089.6         2.19e+6 
         3089.9        2.215e+6 
         3090.2        2.243e+6 
         3090.5        2.267e+6 
         3090.8        2.284e+6 
         3091.1        2.288e+6 
         3091.4        2.273e+6 
         3091.7        2.241e+6 
           3092        2.195e+6 
         3092.3        2.143e+6 
         3092.6        2.096e+6 
         3092.9        2.064e+6 
         3093.2        2.056e+6 
         3093.5        2.071e+6 
         3093.8        2.106e+6 
         3094.1        2.152e+6 
         3094.4        2.196e+6 
         3094.7        2.228e+6 
           3095        2.241e+6 
         3095.3        2.233e+6 
         3095.6        2.204e+6 
         3095.9        2.163e+6 
         3096.2        2.118e+6 
         3096.5        2.081e+6 
         3096.8        2.059e+6 
         3097.1        2.057e+6 
         3097.4        2.071e+6 
         3097.7        2.094e+6 
           3098        2.116e+6 
         3098.3        2.125e+6 
         3098.6        2.115e+6 
         3098.9        2.084e+6 
         3099.2        2.034e+6 
         3099.5        1.972e+6 
         3099.8        1.909e+6 
         3100.1        1.856e+6 
         3100.4        1.822e+6 
         3100.7        1.812e+6 
           3101         1.83e+6 
         3101.3        1.872e+6 
         3101.6        1.936e+6 
         3101.9        2.012e+6 
         3102.2        2.093e+6 
         3102.5        2.169e+6 
         3102.8        2.232e+6 
         3103.1        2.275e+6 
         3103.4        2.295e+6 
         3103.7        2.291e+6 
           3104        2.268e+6 
         3104.3        2.232e+6 
         3104.6        2.192e+6 
         3104.9        2.158e+6 
         3105.2        2.139e+6 
         3105.5         2.14e+6 
         3105.8        2.164e+6 
         3106.1        2.207e+6 
         3106.4        2.265e+6 
         3106.7        2.328e+6 
           3107        2.389e+6 
         3107.3        2.442e+6 
         3107.6        2.482e+6 
         3107.9        2.506e+6 
         3108.2        2.512e+6 
         3108.5        2.504e+6 
         3108.8        2.484e+6 
         3109.1        2.456e+6 
         3109.4        2.426e+6 
         3109.7        2.398e+6 
           3110        2.378e+6 
         3110.3        2.372e+6 
         3110.6        2.379e+6 
         3110.9        2.402e+6 
         3111.2        2.436e+6 
         3111.5        2.477e+6 
         3111.8        2.519e+6 
         3112.1        2.556e+6 
         3112.4        2.583e+6 
         3112.7        2.594e+6 
           3113        2.588e+6 
         3113.3        2.567e+6 
         3113.6        2.536e+6 
         3113.9        2.501e+6 
         3114.2        2.472e+6 
         3114.5        2.455e+6 
         3114.8        2.451e+6 
         3115.1        2.461e+6 
         3115.4        2.478e+6 
         3115.7        2.496e+6 
           3116        2.505e+6 
         3116.3          2.5e+6 
         3116.6        2.477e+6 
         3116.9        2.436e+6 
         3117.2        2.379e+6 
         3117.5        2.313e+6 
         3117.8        2.245e+6 
         3118.1         2.18e+6 
         3118.4        2.124e+6 
         3118.7         2.08e+6 
           3119        2.049e+6 
         3119.3         2.03e+6 
         3119.6        2.022e+6 
         3119.9        2.024e+6 
         3120.2        2.036e+6 
         3120.5        2.056e+6 
         3120.8        2.084e+6 
         3121.1        2.118e+6 
         3121.4         2.16e+6 
         3121.7        2.209e+6 
           3122        2.264e+6 
         3122.3        2.325e+6 
         3122.6        2.386e+6 
         3122.9        2.442e+6 
         3123.2        2.484e+6 
         3123.5        2.503e+6 
         3123.8        2.494e+6 
         3124.1        2.458e+6 
         3124.4        2.403e+6 
         3124.7        2.341e+6 
           3125         2.29e+6 
         3125.3        2.265e+6 
         3125.6        2.274e+6 
         3125.9        2.318e+6 
         3126.2        2.388e+6 
         3126.5        2.466e+6 
         3126.8        2.537e+6 
         3127.1        2.585e+6 
         3127.4        2.602e+6 
         3127.7        2.586e+6 
           3128        2.544e+6 
         3128.3        2.484e+6 
         3128.6        2.417e+6 
         3128.9        2.351e+6 
         3129.2        2.291e+6 
         3129.5        2.238e+6 
         3129.8        2.192e+6 
         3130.1        2.153e+6 
         3130.4        2.121e+6 
         3130.7        2.099e+6 
           3131        2.085e+6 
         3131.3         2.08e+6 
         3131.6        2.082e+6 
         3131.9         2.09e+6 
         3132.2          2.1e+6 
         3132.5        2.113e+6 
         3132.8        2.125e+6 
         3133.1        2.137e+6 
         3133.4        2.151e+6 
         3133.7        2.167e+6 
           3134         2.19e+6 
         3134.3        2.219e+6 
         3134.6        2.254e+6 
         3134.9        2.294e+6 
         3135.2        2.336e+6 
         3135.5        2.378e+6 
         3135.8         2.42e+6 
         3136.1        2.462e+6 
         3136.4        2.504e+6 
         3136.7         2.55e+6 
           3137        2.596e+6 
         3137.3         2.64e+6 
         3137.6        2.678e+6 
         3137.9        2.705e+6 
         3138.2        2.719e+6 
         3138.5        2.719e+6 
         3138.8        2.709e+6 
         3139.1        2.695e+6 
         3139.4         2.68e+6 
         3139.7        2.669e+6 
           3140        2.662e+6 
         3140.3         2.66e+6 
         3140.6        2.658e+6 
         3140.9         2.65e+6 
         3141.2        2.631e+6 
         3141.5        2.595e+6 
         3141.8        2.542e+6 
         3142.1        2.473e+6 
         3142.4        2.392e+6 
         3142.7        2.304e+6 
           3143        2.214e+6 
         3143.3        2.125e+6 
         3143.6        2.044e+6 
         3143.9        1.975e+6 
         3144.2        1.923e+6 
         3144.5        1.894e+6 
         3144.8        1.891e+6 
         3145.1        1.917e+6 
         3145.4        1.968e+6 
         3145.7         2.04e+6 
           3146        2.123e+6 
         3146.3        2.209e+6 
         3146.6        2.288e+6 
         3146.9        2.358e+6 
         3147.2        2.416e+6 
         3147.5        2.464e+6 
         3147.8        2.504e+6 
         3148.1        2.538e+6 
         3148.4        2.567e+6 
         3148.7        2.592e+6 
           3149        2.612e+6 
         3149.3        2.628e+6 
         3149.6        2.641e+6 
         3149.9        2.652e+6 
         3150.2         2.66e+6 
         3150.5        2.664e+6 
         3150.8        2.664e+6 
         3151.1        2.659e+6 
         3151.4         2.65e+6 
         3151.7        2.638e+6 
           3152        2.626e+6 
         3152.3        2.615e+6 
         3152.6        2.605e+6 
         3152.9        2.592e+6 
         3153.2        2.577e+6 
         3153.5        2.556e+6 
         3153.8        2.531e+6 
         3154.1        2.503e+6 
         3154.4        2.475e+6 
         3154.7        2.449e+6 
           3155        2.429e+6 
         3155.3        2.416e+6 
         3155.6        2.411e+6 
         3155.9        2.412e+6 
         3156.2        2.416e+6 
         3156.5        2.419e+6 
         3156.8        2.415e+6 
         3157.1        2.402e+6 
         3157.4        2.381e+6 
         3157.7        2.352e+6 
           3158         2.32e+6 
         3158.3         2.29e+6 
         3158.6        2.265e+6 
         3158.9        2.247e+6 
         3159.2        2.232e+6 
         3159.5        2.218e+6 
         3159.8        2.198e+6 
         3160.1        2.166e+6 
         3160.4        2.123e+6 
         3160.7        2.073e+6 
           3161        2.022e+6 
         3161.3         1.98e+6 
         3161.6        1.958e+6 
         3161.9        1.962e+6 
         3162.2        1.996e+6 
         3162.5        2.056e+6 
         3162.8        2.135e+6 
         3163.1        2.222e+6 
         3163.4        2.304e+6 
         3163.7         2.37e+6 
           3164        2.415e+6 
         3164.3        2.438e+6 
         3164.6        2.445e+6 
         3164.9        2.443e+6 
         3165.2        2.441e+6 
         3165.5        2.442e+6 
         3165.8        2.449e+6 
         3166.1        2.461e+6 
         3166.4        2.473e+6 
         3166.7         2.48e+6 
           3167        2.478e+6 
         3167.3        2.466e+6 
         3167.6        2.447e+6 
         3167.9        2.428e+6 
         3168.2        2.415e+6 
         3168.5        2.416e+6 
         3168.8        2.435e+6 
         3169.1         2.47e+6 
         3169.4        2.517e+6 
         3169.7        2.572e+6 
           3170        2.629e+6 
         3170.3        2.681e+6 
         3170.6        2.728e+6 
         3170.9        2.768e+6 
         3171.2        2.799e+6 
         3171.5        2.823e+6 
         3171.8         2.84e+6 
         3172.1         2.85e+6 
         3172.4        2.851e+6 
         3172.7        2.846e+6 
           3173        2.834e+6 
         3173.3        2.818e+6 
         3173.6        2.801e+6 
         3173.9        2.785e+6 
         3174.2        2.774e+6 
         3174.5        2.769e+6 
         3174.8        2.773e+6 
         3175.1        2.784e+6 
         3175.4        2.801e+6 
         3175.7        2.818e+6 
           3176        2.829e+6 
         3176.3        2.829e+6 
         3176.6        2.812e+6 
         3176.9        2.776e+6 
         3177.2        2.724e+6 
         3177.5        2.659e+6 
         3177.8        2.587e+6 
         3178.1        2.515e+6 
