# Granada HRES Library
# atmosphere = Spectrum  (atmosphere model used)
# feh = 0  (value for [Fe/H] for the model.)
# logg = 1 log(cm/s2) (value for Log(G) for the model.)
# teff = 4750 K (value for the effective temperature for the model. Temperatures are given in K)
#
# column 1: WAVELENGTH (ANGSTROM), Wavelength in Angstrom
# column 2: FLUX (ERG/CM2/S/A), Flux in erg/cm2/s/A
         3000.2            5021 
         3000.5            5237 
         3000.8            5593 
         3001.1            6084 
         3001.4            6748 
         3001.7            7619 
           3002            8847 
         3002.3           10640 
         3002.6           13310 
         3002.9           17260 
         3003.2           22820 
         3003.5           30220 
         3003.8           39370 
         3004.1           49830 
         3004.4           60730 
         3004.7           70870 
           3005           78920 
         3005.3           83670 
         3005.6           84290 
         3005.9           80580 
         3006.2           73040 
         3006.5           62790 
         3006.8           51310 
         3007.1           40130 
         3007.4           30500 
         3007.7           23260 
           3008           18780 
         3008.3           17170 
         3008.6           18290 
         3008.9           21980 
         3009.2           27920 
         3009.5           35570 
         3009.8           44150 
         3010.1           52570 
         3010.4           59720 
         3010.7           64690 
           3011           67190 
         3011.3           67540 
         3011.6           66670 
         3011.9           65610 
         3012.2           65170 
         3012.5           65610 
         3012.8           66700 
         3013.1           67900 
         3013.4           68600 
         3013.7           68370 
           3014           66980 
         3014.3           64390 
         3014.6           60730 
         3014.9           56220 
         3015.2           51140 
         3015.5           45770 
         3015.8           40400 
         3016.1           35240 
         3016.4           30420 
         3016.7           26030 
           3017           22090 
         3017.3           18620 
         3017.6           15610 
         3017.9           13050 
         3018.2           10850 
         3018.5            9001 
         3018.8            7393 
         3019.1            5998 
         3019.4            4797 
         3019.7            3807 
           3020            3065 
         3020.3            2613 
         3020.6            2507 
         3020.9            2779 
         3021.2            3442 
         3021.5            4466 
         3021.8            5776 
         3022.1            7264 
         3022.4            8790 
         3022.7           10210 
           3023           11420 
         3023.3           12330 
         3023.6           12930 
         3023.9           13230 
         3024.2           13290 
         3024.5           13210 
         3024.8           13220 
         3025.1           13670 
         3025.4           15020 
         3025.7           17770 
           3026           22490 
         3026.3           29530 
         3026.6           38960 
         3026.9           50530 
         3027.2           63540 
         3027.5           76910 
         3027.8           89320 
         3028.1           99400 
         3028.4          106100 
         3028.7          108900 
           3029          108000 
         3029.3          104400 
         3029.6           99100 
         3029.9           93410 
         3030.2           88350 
         3030.5           84910 
         3030.8           84040 
         3031.1           86690 
         3031.4           93560 
         3031.7          104700 
           3032          119300 
         3032.3          135700 
         3032.6          152000 
         3032.9          166000 
         3033.2          176300 
         3033.5          182100 
         3033.8          183400 
         3034.1          180400 
         3034.4          173500 
         3034.7          163000 
           3035          149400 
         3035.3          133000 
         3035.6          114600 
         3035.9           95050 
         3036.2           75820 
         3036.5           58350 
         3036.8           43940 
         3037.1           33440 
         3037.4           27310 
         3037.7           25550 
           3038           27590 
         3038.3           32680 
         3038.6           39730 
         3038.9           47600 
         3039.2           55170 
         3039.5           61460 
         3039.8           65880 
         3040.1           68100 
         3040.4           68190 
         3040.7           66570 
           3041           63920 
         3041.3           61160 
         3041.6           59290 
         3041.9           59370 
         3042.2           62010 
         3042.5           67250 
         3042.8           74360 
         3043.1           82100 
         3043.4           88980 
         3043.7           93770 
           3044           95750 
         3044.3           94710 
         3044.6           90910 
         3044.9           84840 
         3045.2           77100 
         3045.5           68220 
         3045.8           58730 
         3046.1           49180 
         3046.4           40160 
         3046.7           32250 
           3047           26080 
         3047.3           22190 
         3047.6           20870 
         3047.9           22170 
         3048.2           25790 
         3048.5           31090 
         3048.8           37190 
         3049.1           43220 
         3049.4           48640 
         3049.7           53500 
           3050           58600 
         3050.3           65320 
         3050.6           75050 
         3050.9           88540 
         3051.2          105400 
         3051.5          123600 
         3051.8          140300 
         3052.1          152200 
         3052.4          156600 
         3052.7          152500 
           3053          141000 
         3053.3          124800 
         3053.6          107200 
         3053.9           91710 
         3054.2           80460 
         3054.5           74150 
         3054.8           72030 
         3055.1           72290 
         3055.4           72800 
         3055.7           71730 
           3056           67990 
         3056.3           61420 
         3056.6           52760 
         3056.9           43140 
         3057.2           33830 
         3057.5           25780 
         3057.8           19610 
         3058.1           15560 
         3058.4           13650 
         3058.7           13910 
           3059           16620 
         3059.3           21970 
         3059.6           30300 
         3059.9           41740 
         3060.2           56060 
         3060.5           72570 
         3060.8           90090 
         3061.1          107100 
         3061.4          122000 
         3061.7          133200 
           3062          139500 
         3062.3          140300 
         3062.6          135800 
         3062.9          126900 
         3063.2          115500 
         3063.5          103500 
         3063.8           93070 
         3064.1           85380 
         3064.4           80760 
         3064.7           78530 
           3065           77380 
         3065.3           75690 
         3065.6           72490 
         3065.9           67530 
         3066.2           61660 
         3066.5           56600 
         3066.8           54560 
         3067.1           57610 
         3067.4           67350 
         3067.7           84180 
           3068          107600 
         3068.3          135700 
         3068.6          165400 
         3068.9          193600 
         3069.2          217100 
         3069.5          234000 
         3069.8          243500 
         3070.1          246200 
         3070.4          243200 
         3070.7          235800 
           3071          224900 
         3071.3          211300 
         3071.6          196000 
         3071.9          180400 
         3072.2          166600 
         3072.5          156300 
         3072.8          150100 
         3073.1          147600 
         3073.4          147000 
         3073.7          146000 
           3074          142800 
         3074.3          137000 
         3074.6          129400 
         3074.9          122400 
         3075.2          118500 
         3075.5          120100 
         3075.8          127900 
         3076.1          140800 
         3076.4          156000 
         3076.7          170100 
           3077          179800 
         3077.3          183400 
         3077.6          181000 
         3077.9          174500 
         3078.2          166900 
         3078.5          161100 
         3078.8          159300 
         3079.1          161700 
         3079.4          167400 
         3079.7          174000 
           3080          179200 
         3080.3          180800 
         3080.6          178100 
         3080.9          171400 
         3081.2          161800 
         3081.5          151000 
         3081.8          140700 
         3082.1          132500 
         3082.4          127700 
         3082.7          127200 
           3083          132200 
         3083.3          144100 
         3083.6          163800 
         3083.9          191800 
         3084.2          227100 
         3084.5          266800 
         3084.8          306400 
         3085.1          340100 
         3085.4          362600 
         3085.7          369600 
           3086          359500 
         3086.3          333900 
         3086.6          297300 
         3086.9          256000 
         3087.2          216400 
         3087.5          183600 
         3087.8          160300 
         3088.1          146900 
         3088.4          141500 
         3088.7          141000 
           3089          142000 
         3089.3          142000 
         3089.6          139800 
         3089.9          135400 
         3090.2          129400 
         3090.5          122600 
         3090.8          116100 
         3091.1          110400 
         3091.4          105500 
         3091.7          101200 
           3092           97390 
         3092.3           94200 
         3092.6           92400 
         3092.9           93230 
         3093.2           97820 
         3093.5          106500 
         3093.8          118400 
         3094.1          131700 
         3094.4          143800 
         3094.7          152100 
           3095          155100 
         3095.3          152700 
         3095.6          146200 
         3095.9          137900 
         3096.2          130200 
         3096.5          125200 
         3096.8          123700 
         3097.1          125000 
         3097.4          127100 
         3097.7          127600 
           3098          124000 
         3098.3          115400 
         3098.6          101900 
         3098.9           85300 
         3099.2           67780 
         3099.5           51600 
         3099.8           38350 
         3100.1           28970 
         3100.4           23710 
         3100.7           22810 
           3101           26320 
         3101.3           34460 
         3101.6           47350 
         3101.9           64810 
         3102.2           85960 
         3102.5          109200 
         3102.8          132600 
         3103.1          154000 
         3103.4          171500 
         3103.7          184100 
           3104          191300 
         3104.3          193700 
         3104.6          192900 
         3104.9          191000 
         3105.2          190600 
         3105.5          194100 
         3105.8          203200 
         3106.1          218000 
         3106.4          237600 
         3106.7          260000 
           3107          282800 
         3107.3          303700 
         3107.6          321300 
         3107.9          334300 
         3108.2          341800 
         3108.5          343100 
         3108.8          338000 
         3109.1          327400 
         3109.4          313100 
         3109.7          298500 
           3110          287900 
         3110.3          284700 
         3110.6          290700 
         3110.9          305000 
         3111.2          324400 
         3111.5          343600 
         3111.8          357300 
         3112.1          361600 
         3112.4          354900 
         3112.7          337900 
           3113          314200 
         3113.3          288400 
         3113.6          265400 
         3113.9          248900 
         3114.2          240500 
         3114.5          239600 
         3114.8          243400 
         3115.1          248400 
         3115.4          251200 
         3115.7          249600 
           3116          242500 
         3116.3          230400 
         3116.6          215000 
         3116.9          198000 
         3117.2          181100 
         3117.5          165700 
         3117.8          152800 
         3118.1          143200 
         3118.4          137000 
         3118.7          134100 
           3119          134300 
         3119.3          137300 
         3119.6          143300 
         3119.9          151900 
         3120.2          162500 
         3120.5          173100 
         3120.8          181600 
         3121.1          185900 
         3121.4          184800 
         3121.7          179300 
           3122          171700 
         3122.3          165100 
         3122.6          162400 
         3122.9          165500 
         3123.2          174200 
         3123.5          186200 
         3123.8          198200 
         3124.1          206500 
         3124.4          209000 
         3124.7          205500 
           3125          198600 
         3125.3          192300 
         3125.6          190400 
         3125.9          195400 
         3126.2          207500 
         3126.5          224200 
         3126.8          242000 
         3127.1          256800 
         3127.4          265800 
         3127.7          267500 
           3128          262500 
         3128.3          252700 
         3128.6          240700 
         3128.9          228800 
         3129.2          218300 
         3129.5          209700 
         3129.8          202600 
         3130.1          196900 
         3130.4          192300 
         3130.7          188600 
           3131          185500 
         3131.3          182200 
         3131.6          177600 
         3131.9          170900 
         3132.2          161600 
         3132.5          150400 
         3132.8          138500 
         3133.1          127900 
         3133.4          121000 
         3133.7          120100 
           3134          126800 
         3134.3          140900 
         3134.6          160900 
         3134.9          183600 
         3135.2          205400 
         3135.5          223000 
         3135.8          234800 
         3136.1          240700 
         3136.4          242200 
         3136.7          241200 
           3137          239300 
         3137.3          237500 
         3137.6          236300 
         3137.9          235900 
         3138.2          236900 
         3138.5          239600 
         3138.8          244500 
         3139.1          252100 
         3139.4          262600 
         3139.7          275800 
           3140          291300 
         3140.3          307700 
         3140.6          322500 
         3140.9          332800 
         3141.2          335900 
         3141.5          329900 
         3141.8          314400 
         3142.1          290400 
         3142.4          260100 
         3142.7          226200 
           3143          191700 
         3143.3          159100 
         3143.6          130800 
         3143.9          108500 
         3144.2           93450 
         3144.5           85940 
         3144.8           85290 
         3145.1           90170 
         3145.4           98470 
         3145.7          108000 
           3146          117300 
         3146.3          125600 
         3146.6          133900 
         3146.9          143900 
         3147.2          157600 
         3147.5          176300 
         3147.8          199900 
         3148.1          227200 
         3148.4          255400 
         3148.7          281600 
           3149          303700 
         3149.3          320400 
         3149.6          331900 
         3149.9          339200 
         3150.2          342900 
         3150.5          343300 
         3150.8          340100 
         3151.1          333300 
         3151.4          323900 
         3151.7          313500 
           3152          304300 
         3152.3          297900 
         3152.6          295200 
         3152.9          295300 
         3153.2          296700 
         3153.5          297300 
         3153.8          295700 
         3154.1          291600 
         3154.4          285600 
         3154.7          278500 
           3155          271000 
         3155.3          262700 
         3155.6          253100 
         3155.9          241100 
         3156.2          226000 
         3156.5          207900 
         3156.8          187600 
         3157.1          166900 
         3157.4          147700 
         3157.7          132000 
           3158          121000 
         3158.3          114600 
         3158.6          112300 
         3158.9          112800 
         3159.2          114200 
         3159.5          114900 
         3159.8          113600 
         3160.1          109900 
         3160.4          104300 
         3160.7           98300 
           3161           93790 
         3161.3           92750 
         3161.6           96550 
         3161.9          105700 
         3162.2          119700 
         3162.5          137000 
         3162.8          155100 
         3163.1          171300 
         3163.4          183600 
         3163.7          190300 
           3164          191800 
         3164.3          189600 
         3164.6          186500 
         3164.9          185100 
         3165.2          187600 
         3165.5          194600 
         3165.8          205400 
         3166.1          218200 
         3166.4          230200 
         3166.7          238300 
           3167          240300 
         3167.3          235300 
         3167.6          224300 
         3167.9          210400 
         3168.2          197700 
         3168.5          190700 
         3168.8          192400 
         3169.1          203800 
         3169.4          223800 
         3169.7          249100 
           3170          276100 
         3170.3          301500 
         3170.6          323500 
         3170.9          341900 
         3171.2          357700 
         3171.5          372000 
         3171.8          385200 
         3172.1          396500 
         3172.4          404000 
         3172.7          406100 
           3173          401800 
         3173.3          392200 
         3173.6          379300 
         3173.9          366000 
         3174.2          355700 
         3174.5          351300 
         3174.8          355100 
         3175.1          367300 
         3175.4          386600 
         3175.7          409200 
           3176          429700 
         3176.3          442600 
         3176.6          443800 
         3176.9          431700 
         3177.2          407600 
         3177.5          375100 
         3177.8          338500 
         3178.1          302000 
