# Granada HRES Library
# atmosphere = Phoenix  (atmosphere model used)
# feh = 3  (value for [Fe/H] for the model.)
# logg = 2 log(cm/s2) (value for Log(G) for the model.)
# teff = 3000 K (value for the effective temperature for the model. Temperatures are given in K)
#
# column 1: WAVELENGTH (ANGSTROM), Wavelength in Angstrom
# column 2: FLUX (ERG/CM2/S/A), Flux in erg/cm2/s/A
         3000.2           14.32 
         3000.5           11.19 
         3000.8           9.182 
         3001.1           8.137 
         3001.4           7.744 
         3001.7           7.668 
           3002           7.719 
         3002.3           7.969 
         3002.6           8.734 
         3002.9           10.47 
         3003.2           13.59 
         3003.5           18.27 
         3003.8           24.34 
         3004.1           31.28 
         3004.4           38.29 
         3004.7            44.5 
           3005            49.1 
         3005.3           51.44 
         3005.6           51.14 
         3005.9            48.2 
         3006.2           43.12 
         3006.5           36.79 
         3006.8            30.3 
         3007.1           24.57 
         3007.4           20.27 
         3007.7           17.78 
           3008           17.28 
         3008.3            18.9 
         3008.6           22.85 
         3008.9           29.43 
         3009.2           38.84 
         3009.5           50.65 
         3009.8           63.45 
         3010.1           74.96 
         3010.4           82.76 
         3010.7           85.37 
           3011           83.02 
         3011.3           77.42 
         3011.6           70.98 
         3011.9            65.6 
         3012.2           62.18 
         3012.5           60.58 
         3012.8           60.15 
         3013.1           60.32 
         3013.4           60.84 
         3013.7            61.6 
           3014            62.5 
         3014.3           63.28 
         3014.6           63.72 
         3014.9           63.66 
         3015.2           62.96 
         3015.5           61.44 
         3015.8           58.95 
         3016.1           55.46 
         3016.4            51.1 
         3016.7           46.15 
           3017           41.01 
         3017.3           36.15 
         3017.6           31.88 
         3017.9           28.33 
         3018.2           25.23 
         3018.5           22.24 
         3018.8           19.06 
         3019.1           15.68 
         3019.4           12.32 
         3019.7           9.255 
           3020           6.784 
         3020.3           5.115 
         3020.6             4.4 
         3020.9            4.75 
         3021.2           6.212 
         3021.5           8.727 
         3021.8           12.08 
         3022.1           15.84 
         3022.4           19.47 
         3022.7           22.32 
           3023           23.88 
         3023.3           23.97 
         3023.6           22.76 
         3023.9           20.78 
         3024.2           18.63 
         3024.5           16.77 
         3024.8           15.42 
         3025.1           14.63 
         3025.4           14.48 
         3025.7           15.11 
           3026           16.59 
         3026.3           18.76 
         3026.6           21.19 
         3026.9            23.4 
         3027.2           25.15 
         3027.5           26.69 
         3027.8           28.78 
         3028.1           32.28 
         3028.4           37.72 
         3028.7           44.85 
           3029           52.64 
         3029.3           59.53 
         3029.6           64.21 
         3029.9           66.25 
         3030.2           66.44 
         3030.5           66.61 
         3030.8           69.03 
         3031.1           75.41 
         3031.4            85.9 
         3031.7           98.59 
           3032           109.8 
         3032.3           115.3 
         3032.6           112.7 
         3032.9           102.1 
         3033.2           86.53 
         3033.5           70.31 
         3033.8           57.34 
         3034.1           49.78 
         3034.4           47.71 
         3034.7           49.45 
           3035           52.55 
         3035.3           54.63 
         3035.6           54.15 
         3035.9            50.7 
         3036.2           44.86 
         3036.5           37.93 
         3036.8           31.55 
         3037.1           27.27 
         3037.4           26.14 
         3037.7           28.51 
           3038           33.87 
         3038.3           41.23 
         3038.6           49.43 
         3038.9           57.53 
         3039.2            64.9 
         3039.5           70.83 
         3039.8           74.46 
         3040.1           74.97 
         3040.4           72.07 
         3040.7           66.48 
           3041           59.93 
         3041.3           54.61 
         3041.6           52.28 
         3041.9           53.61 
         3042.2           57.91 
         3042.5           63.46 
         3042.8           68.27 
         3043.1           70.89 
         3043.4           70.91 
         3043.7           68.94 
           3044           66.11 
         3044.3           63.54 
         3044.6            61.9 
         3044.9           61.33 
         3045.2           61.44 
         3045.5           61.36 
         3045.8           60.03 
         3046.1           56.57 
         3046.4           50.69 
         3046.7           42.98 
           3047           34.74 
         3047.3           27.59 
         3047.6           23.01 
         3047.9           21.92 
         3048.2           24.53 
         3048.5           30.29 
         3048.8            37.9 
         3049.1            45.5 
         3049.4           51.09 
         3049.7           53.26 
           3050           51.81 
         3050.3           47.83 
         3050.6           43.23 
         3050.9           39.83 
         3051.2           38.68 
         3051.5           39.84 
         3051.8           42.49 
         3052.1           45.36 
         3052.4           47.15 
         3052.7           46.94 
           3053           44.58 
         3053.3           40.67 
         3053.6            36.4 
         3053.9           32.94 
         3054.2           31.14 
         3054.5           31.15 
         3054.8           32.48 
         3055.1           34.23 
         3055.4           35.46 
         3055.7           35.61 
           3056           34.62 
         3056.3           32.82 
         3056.6           30.76 
         3056.9           28.87 
         3057.2           27.34 
         3057.5           26.13 
         3057.8              25 
         3058.1           23.83 
         3058.4           22.72 
         3058.7           22.21 
           3059           23.06 
         3059.3           25.94 
         3059.6           31.12 
         3059.9            38.3 
         3060.2           46.72 
         3060.5           55.43 
         3060.8           63.54 
         3061.1           70.41 
         3061.4           75.56 
         3061.7            78.5 
           3062           78.55 
         3062.3           75.05 
         3062.6           67.79 
         3062.9           57.49 
         3063.2           45.81 
         3063.5            34.8 
         3063.8           26.18 
         3064.1           20.75 
         3064.4           18.28 
         3064.7           17.96 
           3065            18.9 
         3065.3            20.6 
         3065.6           23.02 
         3065.9            26.3 
         3066.2           30.37 
         3066.5           34.68 
         3066.8           38.34 
         3067.1           40.53 
         3067.4           40.99 
         3067.7           40.11 
           3068           38.62 
         3068.3           37.09 
         3068.6           35.63 
         3068.9           33.98 
         3069.2           31.86 
         3069.5           29.38 
         3069.8           27.28 
         3070.1           26.67 
         3070.4           28.54 
         3070.7           33.21 
           3071           40.12 
         3071.3           48.03 
         3071.6           55.65 
         3071.9           62.26 
         3072.2           67.92 
         3072.5           73.31 
         3072.8           79.09 
         3073.1           85.55 
         3073.4           92.26 
         3073.7           98.21 
           3074           102.2 
         3074.3           103.5 
         3074.6           102.5 
         3074.9           101.2 
         3075.2             102 
         3075.5           106.9 
         3075.8           116.1 
         3076.1           127.4 
         3076.4           137.1 
         3076.7             142 
           3077           140.6 
         3077.3           133.7 
         3077.6           123.8 
         3077.9           113.2 
         3078.2           103.9 
         3078.5           96.24 
         3078.8           89.49 
         3079.1           82.44 
         3079.4           74.12 
         3079.7           64.39 
           3080           53.83 
         3080.3           43.41 
         3080.6           34.02 
         3080.9           26.27 
         3081.2           20.41 
         3081.5           16.52 
         3081.8           14.54 
         3082.1           14.22 
         3082.4           15.12 
         3082.7           16.74 
           3083           18.73 
         3083.3           21.06 
         3083.6           23.98 
         3083.9           27.84 
         3084.2            32.9 
         3084.5           39.19 
         3084.8           46.45 
         3085.1           54.12 
         3085.4           61.25 
         3085.7           66.97 
           3086           71.07 
         3086.3           74.61 
         3086.6           79.77 
         3086.9           88.92 
         3087.2           103.3 
         3087.5           121.8 
         3087.8           141.1 
         3088.1           156.2 
         3088.4           162.4 
         3088.7           157.1 
           3089             141 
         3089.3           117.3 
         3089.6           90.82 
         3089.9           65.86 
         3090.2           45.36 
         3090.5           30.44 
         3090.8           20.72 
         3091.1           15.01 
         3091.4           11.93 
         3091.7           10.42 
           3092           9.895 
         3092.3           10.32 
         3092.6              12 
         3092.9           15.27 
         3093.2           20.29 
         3093.5            26.8 
         3093.8           34.17 
         3094.1           41.56 
         3094.4            48.1 
         3094.7           52.97 
           3095           55.61 
         3095.3           55.96 
         3095.6           54.95 
         3095.9            54.7 
         3096.2           58.17 
         3096.5           68.01 
         3096.8           84.96 
         3097.1           106.7 
         3097.4           127.9 
         3097.7           142.1 
           3098           144.4 
         3098.3           133.5 
         3098.6           112.7 
         3098.9           87.76 
         3099.2           64.74 
         3099.5            47.7 
         3099.8           37.88 
         3100.1           34.09 
         3100.4           33.89 
         3100.7           34.99 
           3101           36.23 
         3101.3           41.84 
         3101.6           49.57 
         3101.9           62.09 
         3102.2           78.94 
         3102.5           98.29 
         3102.8           117.7 
         3103.1           135.2 
         3103.4           149.4 
         3103.7           159.6 
           3104           164.8 
         3104.3           163.6 
         3104.6           154.8 
         3104.9           138.9 
         3105.2           118.2 
         3105.5           96.71 
         3105.8           78.02 
         3106.1           64.51 
         3106.4           56.92 
         3106.7           54.82 
           3107           57.07 
         3107.3           62.05 
         3107.6           67.71 
         3107.9           72.13 
         3108.2           74.11 
         3108.5           73.89 
         3108.8           73.21 
         3109.1           74.76 
         3109.4           81.23 
         3109.7           94.36 
           3110             114 
         3110.3           137.6 
         3110.6           160.6 
         3110.9           177.2 
         3111.2           182.9 
         3111.5           175.6 
         3111.8           157.5 
         3112.1           133.4 
         3112.4           108.9 
         3112.7           88.43 
           3113            74.9 
         3113.3           69.35 
         3113.6           71.97 
         3113.9           82.55 
         3114.2           100.4 
         3114.5           123.5 
         3114.8           148.7 
         3115.1             171 
         3115.4           185.4 
         3115.7           188.2 
           3116           179.1 
         3116.3           162.1 
         3116.6           144.9 
         3116.9           135.7 
         3117.2             141 
         3117.5           162.7 
         3117.8           197.7 
         3118.1           238.9 
         3118.4           277.7 
         3118.7           306.1 
           3119           320.1 
         3119.3             320 
         3119.6             310 
         3119.9           295.7 
         3120.2           280.3 
         3120.5           262.8 
         3120.8           240.7 
         3121.1           211.7 
         3121.4           178.3 
         3121.7           146.6 
           3122           124.1 
         3122.3           115.9 
         3122.6           121.4 
         3122.9             135 
         3123.2           149.2 
         3123.5           157.5 
         3123.8             158 
         3124.1           153.7 
         3124.4             150 
         3124.7           151.3 
           3125           158.4 
         3125.3           167.5 
         3125.6           173.3 
         3125.9           171.7 
         3126.2           162.2 
         3126.5           147.5 
         3126.8           131.3 
         3127.1           116.3 
         3127.4           103.1 
         3127.7            91.5 
           3128           81.29 
         3128.3           72.61 
         3128.6           66.07 
         3128.9            62.6 
         3129.2           63.14 
         3129.5            68.6 
         3129.8           79.88 
         3130.1           97.88 
         3130.4           123.2 
         3130.7           154.7 
           3131           189.1 
         3131.3           220.1 
         3131.6           240.1 
         3131.9           244.1 
         3132.2           231.9 
         3132.5           208.5 
         3132.8           181.3 
         3133.1           157.1 
         3133.4           140.3 
         3133.7           132.9 
           3134           135.1 
         3134.3           144.4 
         3134.6           155.9 
         3134.9           163.8 
         3135.2           163.7 
         3135.5           155.6 
         3135.8           143.8 
         3136.1             135 
         3136.4           135.2 
         3136.7           147.4 
           3137           170.9 
         3137.3           200.8 
         3137.6           229.7 
         3137.9           249.7 
         3138.2           256.6 
         3138.5           251.1 
         3138.8           238.9 
         3139.1             228 
         3139.4           225.5 
         3139.7           235.3 
           3140           257.4 
         3140.3           287.5 
         3140.6           318.8 
         3140.9           344.6 
         3141.2           361.4 
         3141.5           369.6 
         3141.8           371.2 
         3142.1           366.7 
         3142.4           353.9 
         3142.7           330.6 
           3143             298 
         3143.3           262.1 
         3143.6           229.7 
         3143.9             205 
         3144.2           187.7 
         3144.5           174.1 
         3144.8           160.7 
         3145.1           145.9 
         3145.4           130.5 
         3145.7             116 
           3146           104.7 
         3146.3           99.66 
         3146.6           104.2 
         3146.9           122.3 
         3147.2           157.3 
         3147.5           209.8 
         3147.8           276.4 
         3148.1           347.2 
         3148.4           408.2 
         3148.7           444.9 
           3149           448.7 
         3149.3           420.8 
         3149.6           371.4 
         3149.9           314.5 
         3150.2           261.2 
         3150.5             217 
         3150.8             182 
         3151.1           154.5 
         3151.4           133.9 
         3151.7           120.5 
           3152           115.6 
         3152.3           118.8 
         3152.6           127.9 
         3152.9           139.5 
         3153.2           150.7 
         3153.5           160.6 
         3153.8           171.1 
         3154.1           184.1 
         3154.4           198.9 
         3154.7           211.5 
           3155           216.8 
         3155.3           211.3 
         3155.6           196.6 
         3155.9           178.2 
         3156.2           162.9 
         3156.5           155.7 
         3156.8           157.6 
         3157.1           166.4 
         3157.4           178.4 
         3157.7           190.6 
           3158           201.3 
         3158.3           210.3 
         3158.6           217.5 
         3158.9           222.4 
         3159.2           223.7 
         3159.5           221.7 
         3159.8           219.2 
         3160.1             222 
         3160.4           235.2 
         3160.7           260.2 
           3161             292 
         3161.3           322.8 
         3161.6           346.2 
         3161.9           362.3 
         3162.2             376 
         3162.5           392.8 
         3162.8           414.6 
         3163.1           438.7 
         3163.4           460.8 
         3163.7           478.3 
           3164           489.7 
         3164.3           493.6 
         3164.6           487.9 
         3164.9           472.2 
         3165.2           449.9 
         3165.5           428.9 
         3165.8           420.2 
         3166.1           434.8 
         3166.4           478.8 
         3166.7           549.8 
           3167           634.9 
         3167.3           712.6 
         3167.6           760.3 
         3167.9           763.3 
         3168.2           723.3 
         3168.5           657.2 
         3168.8           589.1 
         3169.1           536.9 
         3169.4           504.9 
         3169.7           485.1 
           3170           465.9 
         3170.3           440.4 
         3170.6           410.9 
         3170.9           385.5 
         3171.2           372.1 
         3171.5           372.9 
         3171.8           382.4 
         3172.1           391.2 
         3172.4           391.4 
         3172.7           381.9 
           3173             369 
         3173.3           363.5 
         3173.6           374.8 
         3173.9           406.3 
         3174.2           454.6 
         3174.5           511.8 
         3174.8           567.8 
         3175.1           612.9 
         3175.4           638.5 
         3175.7           638.5 
           3176           611.4 
         3176.3           562.1 
         3176.6           501.6 
         3176.9           444.1 
         3177.2           403.5 
         3177.5           388.9 
         3177.8           401.4 
         3178.1           432.5 
