# Granada HRES Library
# atmosphere = Spectrum  (atmosphere model used)
# feh = -5  (value for [Fe/H] for the model.)
# logg = 3.5 log(cm/s2) (value for Log(G) for the model.)
# teff = 5750 K (value for the effective temperature for the model. Temperatures are given in K)
#
# column 1: WAVELENGTH (ANGSTROM), Wavelength in Angstrom
# column 2: FLUX (ERG/CM2/S/A), Flux in erg/cm2/s/A
         3000.2        2.266e+6 
         3000.5        2.279e+6 
         3000.8        2.294e+6 
         3001.1         2.31e+6 
         3001.4        2.321e+6 
         3001.7         2.33e+6 
           3002        2.343e+6 
         3002.3        2.371e+6 
         3002.6        2.431e+6 
         3002.9        2.537e+6 
         3003.2        2.697e+6 
         3003.5        2.912e+6 
         3003.8         3.17e+6 
         3004.1        3.449e+6 
         3004.4        3.724e+6 
         3004.7        3.968e+6 
           3005        4.156e+6 
         3005.3         4.27e+6 
         3005.6        4.301e+6 
         3005.9        4.252e+6 
         3006.2        4.134e+6 
         3006.5        3.967e+6 
         3006.8        3.776e+6 
         3007.1        3.588e+6 
         3007.4        3.429e+6 
         3007.7        3.318e+6 
           3008         3.27e+6 
         3008.3        3.291e+6 
         3008.6        3.381e+6 
         3008.9        3.533e+6 
         3009.2        3.732e+6 
         3009.5        3.956e+6 
         3009.8        4.178e+6 
         3010.1        4.371e+6 
         3010.4        4.508e+6 
         3010.7         4.58e+6 
           3011        4.584e+6 
         3011.3        4.537e+6 
         3011.6        4.459e+6 
         3011.9        4.373e+6 
         3012.2        4.295e+6 
         3012.5        4.233e+6 
         3012.8        4.186e+6 
         3013.1        4.148e+6 
         3013.4        4.114e+6 
         3013.7        4.081e+6 
           3014        4.047e+6 
         3014.3        4.014e+6 
         3014.6        3.986e+6 
         3014.9        3.963e+6 
         3015.2        3.947e+6 
         3015.5        3.937e+6 
         3015.8        3.928e+6 
         3016.1        3.917e+6 
         3016.4        3.894e+6 
         3016.7        3.854e+6 
           3017        3.791e+6 
         3017.3        3.702e+6 
         3017.6        3.584e+6 
         3017.9        3.436e+6 
         3018.2        3.257e+6 
         3018.5         3.05e+6 
         3018.8        2.818e+6 
         3019.1        2.571e+6 
         3019.4        2.324e+6 
         3019.7        2.098e+6 
           3020        1.918e+6 
         3020.3        1.814e+6 
         3020.6         1.81e+6 
         3020.9        1.923e+6 
         3021.2        2.152e+6 
         3021.5        2.479e+6 
         3021.8        2.868e+6 
         3022.1        3.272e+6 
         3022.4        3.646e+6 
         3022.7         3.95e+6 
           3023        4.158e+6 
         3023.3        4.261e+6 
         3023.6        4.264e+6 
         3023.9        4.182e+6 
         3024.2        4.037e+6 
         3024.5        3.852e+6 
         3024.8        3.655e+6 
         3025.1        3.476e+6 
         3025.4        3.347e+6 
         3025.7        3.295e+6 
           3026         3.34e+6 
         3026.3        3.482e+6 
         3026.6        3.705e+6 
         3026.9        3.977e+6 
         3027.2        4.258e+6 
         3027.5        4.508e+6 
         3027.8        4.695e+6 
         3028.1        4.801e+6 
         3028.4        4.822e+6 
         3028.7        4.767e+6 
           3029        4.651e+6 
         3029.3        4.497e+6 
         3029.6        4.326e+6 
         3029.9        4.159e+6 
         3030.2        4.012e+6 
         3030.5        3.898e+6 
         3030.8        3.826e+6 
         3031.1        3.803e+6 
         3031.4        3.828e+6 
         3031.7        3.897e+6 
           3032        3.995e+6 
         3032.3        4.108e+6 
         3032.6         4.22e+6 
         3032.9        4.321e+6 
         3033.2         4.41e+6 
         3033.5        4.488e+6 
         3033.8        4.563e+6 
         3034.1        4.636e+6 
         3034.4        4.704e+6 
         3034.7        4.754e+6 
           3035        4.766e+6 
         3035.3         4.72e+6 
         3035.6        4.598e+6 
         3035.9        4.397e+6 
         3036.2        4.127e+6 
         3036.5        3.818e+6 
         3036.8        3.509e+6 
         3037.1        3.246e+6 
         3037.4        3.066e+6 
         3037.7        2.991e+6 
           3038        3.026e+6 
         3038.3        3.153e+6 
         3038.6        3.341e+6 
         3038.9        3.551e+6 
         3039.2        3.746e+6 
         3039.5        3.895e+6 
         3039.8        3.979e+6 
         3040.1        3.995e+6 
         3040.4        3.949e+6 
         3040.7        3.859e+6 
           3041        3.749e+6 
         3041.3        3.644e+6 
         3041.6        3.569e+6 
         3041.9         3.54e+6 
         3042.2        3.566e+6 
         3042.5        3.643e+6 
         3042.8        3.756e+6 
         3043.1        3.884e+6 
         3043.4        4.007e+6 
         3043.7        4.109e+6 
           3044        4.183e+6 
         3044.3        4.228e+6 
         3044.6        4.247e+6 
         3044.9        4.241e+6 
         3045.2        4.206e+6 
         3045.5        4.137e+6 
         3045.8         4.03e+6 
         3046.1        3.883e+6 
         3046.4        3.709e+6 
         3046.7        3.531e+6 
           3047        3.378e+6 
         3047.3        3.283e+6 
         3047.6        3.267e+6 
         3047.9        3.334e+6 
         3048.2        3.471e+6 
         3048.5        3.649e+6 
         3048.8        3.837e+6 
         3049.1        4.006e+6 
         3049.4        4.137e+6 
         3049.7        4.233e+6 
           3050        4.307e+6 
         3050.3        4.382e+6 
         3050.6         4.48e+6 
         3050.9         4.61e+6 
         3051.2        4.765e+6 
         3051.5         4.92e+6 
         3051.8        5.044e+6 
         3052.1        5.106e+6 
         3052.4        5.088e+6 
         3052.7        4.991e+6 
           3053        4.834e+6 
         3053.3         4.65e+6 
         3053.6        4.476e+6 
         3053.9        4.345e+6 
         3054.2        4.277e+6 
         3054.5        4.274e+6 
         3054.8         4.32e+6 
         3055.1        4.383e+6 
         3055.4        4.426e+6 
         3055.7        4.419e+6 
           3056        4.339e+6 
         3056.3        4.184e+6 
         3056.6        3.968e+6 
         3056.9        3.719e+6 
         3057.2         3.47e+6 
         3057.5         3.25e+6 
         3057.8        3.082e+6 
         3058.1        2.975e+6 
         3058.4        2.935e+6 
         3058.7        2.962e+6 
           3059        3.056e+6 
         3059.3        3.217e+6 
         3059.6        3.435e+6 
         3059.9        3.693e+6 
         3060.2        3.966e+6 
         3060.5        4.222e+6 
         3060.8        4.432e+6 
         3061.1        4.575e+6 
         3061.4        4.639e+6 
         3061.7        4.625e+6 
           3062        4.542e+6 
         3062.3        4.403e+6 
         3062.6        4.227e+6 
         3062.9        4.035e+6 
         3063.2        3.847e+6 
         3063.5        3.679e+6 
         3063.8        3.546e+6 
         3064.1         3.45e+6 
         3064.4        3.384e+6 
         3064.7        3.335e+6 
           3065        3.283e+6 
         3065.3        3.215e+6 
         3065.6        3.124e+6 
         3065.9        3.015e+6 
         3066.2        2.901e+6 
         3066.5        2.803e+6 
         3066.8        2.742e+6 
         3067.1        2.737e+6 
         3067.4        2.794e+6 
         3067.7        2.917e+6 
           3068        3.092e+6 
         3068.3        3.302e+6 
         3068.6        3.523e+6 
         3068.9        3.731e+6 
         3069.2        3.906e+6 
         3069.5        4.036e+6 
         3069.8        4.119e+6 
         3070.1        4.161e+6 
         3070.4        4.171e+6 
         3070.7        4.157e+6 
           3071        4.129e+6 
         3071.3        4.094e+6 
         3071.6        4.059e+6 
         3071.9        4.034e+6 
         3072.2         4.03e+6 
         3072.5        4.053e+6 
         3072.8        4.104e+6 
         3073.1         4.17e+6 
         3073.4        4.232e+6 
         3073.7        4.269e+6 
           3074        4.265e+6 
         3074.3        4.216e+6 
         3074.6        4.136e+6 
         3074.9        4.048e+6 
         3075.2        3.983e+6 
         3075.5        3.964e+6 
         3075.8        3.998e+6 
         3076.1        4.075e+6 
         3076.4         4.17e+6 
         3076.7        4.253e+6 
           3077          4.3e+6 
         3077.3        4.302e+6 
         3077.6        4.265e+6 
         3077.9        4.208e+6 
         3078.2        4.157e+6 
         3078.5        4.129e+6 
         3078.8        4.133e+6 
         3079.1        4.165e+6 
         3079.4        4.207e+6 
         3079.7        4.237e+6 
           3080        4.238e+6 
         3080.3        4.199e+6 
         3080.6        4.123e+6 
         3080.9        4.019e+6 
         3081.2        3.904e+6 
         3081.5        3.795e+6 
         3081.8         3.71e+6 
         3082.1        3.664e+6 
         3082.4        3.665e+6 
         3082.7        3.718e+6 
           3083        3.823e+6 
         3083.3        3.975e+6 
         3083.6        4.163e+6 
         3083.9        4.371e+6 
         3084.2        4.577e+6 
         3084.5        4.757e+6 
         3084.8        4.888e+6 
         3085.1         4.95e+6 
         3085.4        4.932e+6 
         3085.7        4.832e+6 
           3086        4.657e+6 
         3086.3        4.429e+6 
         3086.6        4.174e+6 
         3086.9        3.926e+6 
         3087.2        3.712e+6 
         3087.5        3.554e+6 
         3087.8        3.455e+6 
         3088.1        3.409e+6 
         3088.4        3.395e+6 
         3088.7        3.392e+6 
           3089         3.38e+6 
         3089.3        3.355e+6 
         3089.6        3.317e+6 
         3089.9        3.277e+6 
         3090.2        3.247e+6 
         3090.5         3.23e+6 
         3090.8        3.226e+6 
         3091.1        3.227e+6 
         3091.4        3.219e+6 
         3091.7        3.195e+6 
           3092        3.153e+6 
         3092.3        3.098e+6 
         3092.6        3.049e+6 
         3092.9        3.024e+6 
         3093.2         3.04e+6 
         3093.5        3.102e+6 
         3093.8          3.2e+6 
         3094.1        3.316e+6 
         3094.4        3.424e+6 
         3094.7          3.5e+6 
           3095        3.526e+6 
         3095.3        3.497e+6 
         3095.6         3.42e+6 
         3095.9        3.314e+6 
         3096.2        3.206e+6 
         3096.5        3.121e+6 
         3096.8        3.075e+6 
         3097.1        3.071e+6 
         3097.4        3.096e+6 
         3097.7        3.125e+6 
           3098        3.128e+6 
         3098.3        3.082e+6 
         3098.6        2.976e+6 
         3098.9        2.814e+6 
         3099.2        2.614e+6 
         3099.5        2.405e+6 
         3099.8        2.215e+6 
         3100.1        2.071e+6 
         3100.4         1.99e+6 
         3100.7        1.981e+6 
           3101        2.049e+6 
         3101.3        2.191e+6 
         3101.6          2.4e+6 
         3101.9         2.66e+6 
         3102.2        2.951e+6 
         3102.5        3.247e+6 
         3102.8        3.521e+6 
         3103.1        3.746e+6 
         3103.4        3.904e+6 
         3103.7        3.984e+6 
           3104        3.991e+6 
         3104.3        3.941e+6 
         3104.6        3.858e+6 
         3104.9        3.772e+6 
         3105.2        3.709e+6 
         3105.5        3.693e+6 
         3105.8        3.735e+6 
         3106.1        3.833e+6 
         3106.4        3.976e+6 
         3106.7        4.145e+6 
           3107        4.317e+6 
         3107.3        4.472e+6 
         3107.6        4.594e+6 
         3107.9        4.673e+6 
         3108.2        4.705e+6 
         3108.5        4.694e+6 
         3108.8        4.652e+6 
         3109.1         4.59e+6 
         3109.4        4.524e+6 
         3109.7        4.469e+6 
           3110        4.439e+6 
         3110.3         4.44e+6 
         3110.6        4.471e+6 
         3110.9        4.526e+6 
         3111.2        4.594e+6 
         3111.5        4.662e+6 
         3111.8        4.715e+6 
         3112.1        4.741e+6 
         3112.4        4.732e+6 
         3112.7        4.686e+6 
           3113        4.606e+6 
         3113.3        4.504e+6 
         3113.6        4.398e+6 
         3113.9         4.31e+6 
         3114.2        4.258e+6 
         3114.5        4.254e+6 
         3114.8        4.293e+6 
         3115.1        4.359e+6 
         3115.4        4.426e+6 
         3115.7        4.465e+6 
           3116        4.451e+6 
         3116.3        4.374e+6 
         3116.6        4.236e+6 
         3116.9        4.055e+6 
         3117.2        3.856e+6 
         3117.5        3.663e+6 
         3117.8        3.496e+6 
         3118.1        3.366e+6 
         3118.4        3.277e+6 
         3118.7        3.226e+6 
           3119        3.205e+6 
         3119.3        3.209e+6 
         3119.6        3.233e+6 
         3119.9        3.272e+6 
         3120.2         3.32e+6 
         3120.5        3.369e+6 
         3120.8        3.411e+6 
         3121.1        3.442e+6 
         3121.4        3.462e+6 
         3121.7        3.479e+6 
           3122        3.504e+6 
         3122.3        3.547e+6 
         3122.6        3.612e+6 
         3122.9        3.693e+6 
         3123.2        3.775e+6 
         3123.5         3.84e+6 
         3123.8        3.873e+6 
         3124.1        3.866e+6 
         3124.4        3.826e+6 
         3124.7        3.771e+6 
           3125        3.727e+6 
         3125.3        3.719e+6 
         3125.6        3.761e+6 
         3125.9        3.854e+6 
         3126.2        3.983e+6 
         3126.5        4.123e+6 
         3126.8        4.244e+6 
         3127.1        4.325e+6 
         3127.4        4.353e+6 
         3127.7        4.331e+6 
           3128        4.273e+6 
         3128.3        4.197e+6 
         3128.6        4.119e+6 
         3128.9        4.049e+6 
         3129.2        3.988e+6 
         3129.5        3.929e+6 
         3129.8        3.869e+6 
         3130.1        3.806e+6 
         3130.4        3.742e+6 
         3130.7        3.683e+6 
           3131        3.633e+6 
         3131.3        3.597e+6 
         3131.6        3.573e+6 
         3131.9        3.556e+6 
         3132.2        3.542e+6 
         3132.5        3.526e+6 
         3132.8        3.506e+6 
         3133.1        3.483e+6 
         3133.4        3.464e+6 
         3133.7        3.459e+6 
           3134        3.478e+6 
         3134.3        3.528e+6 
         3134.6        3.605e+6 
         3134.9        3.699e+6 
         3135.2        3.796e+6 
         3135.5        3.882e+6 
         3135.8        3.951e+6 
         3136.1        4.006e+6 
         3136.4        4.054e+6 
         3136.7        4.104e+6 
           3137        4.159e+6 
         3137.3        4.215e+6 
         3137.6        4.263e+6 
         3137.9        4.294e+6 
         3138.2        4.306e+6 
         3138.5        4.299e+6 
         3138.8        4.284e+6 
         3139.1        4.271e+6 
         3139.4        4.272e+6 
         3139.7        4.293e+6 
           3140        4.331e+6 
         3140.3        4.383e+6 
         3140.6        4.432e+6 
         3140.9        4.462e+6 
         3141.2        4.453e+6 
         3141.5        4.388e+6 
         3141.8        4.257e+6 
         3142.1        4.057e+6 
         3142.4        3.791e+6 
         3142.7        3.477e+6 
           3143        3.136e+6 
         3143.3        2.798e+6 
         3143.6        2.493e+6 
         3143.9        2.255e+6 
         3144.2        2.103e+6 
         3144.5        2.051e+6 
         3144.8        2.097e+6 
         3145.1        2.228e+6 
         3145.4         2.42e+6 
         3145.7        2.642e+6 
           3146        2.866e+6 
         3146.3        3.071e+6 
         3146.6        3.246e+6 
         3146.9        3.392e+6 
         3147.2        3.517e+6 
         3147.5        3.633e+6 
         3147.8        3.749e+6 
         3148.1        3.868e+6 
         3148.4        3.984e+6 
         3148.7        4.093e+6 
           3149        4.187e+6 
         3149.3        4.266e+6 
         3149.6         4.33e+6 
         3149.9        4.383e+6 
         3150.2        4.425e+6 
         3150.5        4.457e+6 
         3150.8        4.474e+6 
         3151.1        4.477e+6 
         3151.4        4.467e+6 
         3151.7        4.451e+6 
           3152        4.436e+6 
         3152.3        4.428e+6 
         3152.6        4.424e+6 
         3152.9        4.421e+6 
         3153.2        4.407e+6 
         3153.5        4.376e+6 
         3153.8        4.324e+6 
         3154.1        4.253e+6 
         3154.4        4.172e+6 
         3154.7        4.087e+6 
           3155        4.005e+6 
         3155.3        3.924e+6 
         3155.6        3.839e+6 
         3155.9        3.744e+6 
         3156.2        3.628e+6 
         3156.5         3.49e+6 
         3156.8        3.332e+6 
         3157.1        3.163e+6 
         3157.4        2.998e+6 
         3157.7         2.85e+6 
           3158        2.732e+6 
         3158.3        2.655e+6 
         3158.6        2.619e+6 
         3158.9         2.62e+6 
         3159.2        2.647e+6 
         3159.5        2.683e+6 
         3159.8        2.713e+6 
         3160.1        2.724e+6 
         3160.4        2.714e+6 
         3160.7        2.691e+6 
           3161         2.67e+6 
         3161.3        2.667e+6 
         3161.6          2.7e+6 
         3161.9        2.777e+6 
         3162.2        2.894e+6 
         3162.5        3.043e+6 
         3162.8        3.205e+6 
         3163.1        3.357e+6 
         3163.4        3.479e+6 
         3163.7         3.56e+6 
           3164        3.599e+6 
         3164.3        3.606e+6 
         3164.6        3.597e+6 
         3164.9        3.592e+6 
         3165.2        3.604e+6 
         3165.5         3.64e+6 
         3165.8          3.7e+6 
         3166.1        3.774e+6 
         3166.4        3.846e+6 
         3166.7        3.901e+6 
           3167        3.924e+6 
         3167.3        3.908e+6 
         3167.6        3.854e+6 
         3167.9        3.778e+6 
         3168.2        3.698e+6 
         3168.5         3.64e+6 
         3168.8        3.624e+6 
         3169.1        3.664e+6 
         3169.4        3.757e+6 
         3169.7        3.896e+6 
           3170        4.061e+6 
         3170.3        4.232e+6 
         3170.6        4.392e+6 
         3170.9        4.528e+6 
         3171.2        4.636e+6 
         3171.5        4.712e+6 
         3171.8        4.758e+6 
         3172.1        4.773e+6 
         3172.4        4.756e+6 
         3172.7        4.709e+6 
           3173        4.637e+6 
         3173.3        4.548e+6 
         3173.6        4.452e+6 
         3173.9        4.363e+6 
         3174.2        4.294e+6 
         3174.5        4.259e+6 
         3174.8        4.263e+6 
         3175.1        4.311e+6 
         3175.4        4.395e+6 
         3175.7        4.499e+6 
           3176        4.599e+6 
         3176.3        4.672e+6 
         3176.6        4.695e+6 
         3176.9        4.654e+6 
         3177.2        4.549e+6 
         3177.5        4.386e+6 
         3177.8        4.181e+6 
         3178.1        3.951e+6 
