# Granada HRES Library
# atmosphere = Phoenix  (atmosphere model used)
# feh = -5  (value for [Fe/H] for the model.)
# logg = 2 log(cm/s2) (value for Log(G) for the model.)
# teff = 3500 K (value for the effective temperature for the model. Temperatures are given in K)
#
# column 1: WAVELENGTH (ANGSTROM), Wavelength in Angstrom
# column 2: FLUX (ERG/CM2/S/A), Flux in erg/cm2/s/A
         3000.2           206.7 
         3000.5           182.9 
         3000.8           167.5 
         3001.1           159.2 
         3001.4           154.9 
         3001.7           150.9 
           3002           145.6 
         3002.3           140.3 
         3002.6           138.9 
         3002.9           146.5 
         3003.2           166.9 
         3003.5           200.9 
         3003.8           246.5 
         3004.1           298.7 
         3004.4           351.7 
         3004.7           399.2 
           3005           436.2 
         3005.3             459 
         3005.6           465.3 
         3005.9           454.7 
         3006.2           429.5 
         3006.5           394.1 
         3006.8           354.8 
         3007.1           318.2 
         3007.4           289.8 
         3007.7           273.7 
           3008           271.3 
         3008.3           282.5 
         3008.6             306 
         3008.9             341 
         3009.2           386.9 
         3009.5           441.5 
         3009.8           498.6 
         3010.1           547.4 
         3010.4           576.2 
         3010.7           577.8 
           3011           554.3 
         3011.3           517.1 
         3011.6           480.8 
         3011.9           457.1 
         3012.2           449.8 
         3012.5           455.5 
         3012.8           466.5 
         3013.1             476 
         3013.4           480.4 
         3013.7           479.1 
           3014           473.8 
         3014.3           466.9 
         3014.6             461 
         3014.9           458.2 
         3015.2           459.2 
         3015.5           462.7 
         3015.8           466.5 
         3016.1           467.8 
         3016.4           464.5 
         3016.7           455.3 
           3017           440.2 
         3017.3           421.3 
         3017.6           400.8 
         3017.9             380 
         3018.2           358.5 
         3018.5           334.1 
         3018.8             305 
         3019.1           271.2 
         3019.4           234.2 
         3019.7           197.2 
           3020           164.1 
         3020.3           139.2 
         3020.6           126.8 
         3020.9           129.8 
         3021.2           148.9 
         3021.5           181.9 
         3021.8             224 
         3022.1           268.2 
         3022.4             307 
         3022.7           333.9 
           3023           344.7 
         3023.3           338.7 
         3023.6           319.7 
         3023.9           294.5 
         3024.2           269.8 
         3024.5           250.2 
         3024.8           236.7 
         3025.1           228.3 
         3025.4           224.2 
         3025.7           225.3 
           3026           232.7 
         3026.3           246.4 
         3026.6           263.6 
         3026.9           280.3 
         3027.2           293.5 
         3027.5           303.7 
         3027.8           314.4 
         3028.1             331 
         3028.4           357.4 
         3028.7           393.5 
           3029           434.9 
         3029.3           474.2 
         3029.6           504.1 
         3029.9           520.8 
         3030.2           525.6 
         3030.5           525.2 
         3030.8           529.9 
         3031.1           548.9 
         3031.4           586.1 
         3031.7           635.7 
           3032           683.2 
         3032.3           710.2 
         3032.6           703.8 
         3032.9           661.9 
         3033.2           595.6 
         3033.5           523.7 
         3033.8           464.7 
         3034.1           431.2 
         3034.4             426 
         3034.7           442.3 
           3035           467.4 
         3035.3           487.7 
         3035.6             493 
         3035.9             479 
         3036.2             448 
         3036.5           407.5 
         3036.8           368.3 
         3037.1           341.7 
         3037.4           335.7 
         3037.7           352.3 
           3038             387 
         3038.3           430.6 
         3038.6           473.9 
         3038.9           511.3 
         3039.2           540.8 
         3039.5             562 
         3039.8           572.8 
         3040.1           570.2 
         3040.4           551.9 
         3040.7           520.4 
           3041           483.5 
         3041.3           452.4 
         3041.6           437.5 
         3041.9           444.4 
         3042.2             471 
         3042.5           508.3 
         3042.8           544.7 
         3043.1           570.7 
         3043.4           582.9 
         3043.7           583.8 
           3044           579.9 
         3044.3           578.5 
         3044.6           584.5 
         3044.9           599.1 
         3045.2           618.3 
         3045.5           633.9 
         3045.8           635.3 
         3046.1           613.9 
         3046.4           567.7 
         3046.7           502.4 
           3047           430.7 
         3047.3           367.4 
         3047.6           324.6 
         3047.9           309.5 
         3048.2           322.6 
         3048.5           359.2 
         3048.8             410 
         3049.1           462.3 
         3049.4           502.9 
         3049.7             522 
           3050           517.4 
         3050.3           495.3 
         3050.6           466.8 
         3050.9           442.5 
         3051.2           428.7 
         3051.5             426 
         3051.8           431.1 
         3052.1           438.4 
         3052.4           442.4 
         3052.7           438.3 
           3053           424.5 
         3053.3           403.1 
         3053.6           379.1 
         3053.9             359 
         3054.2           347.4 
         3054.5           345.5 
         3054.8           350.8 
         3055.1           358.3 
         3055.4           363.2 
         3055.7           362.4 
           3056           356.2 
         3056.3           347.2 
         3056.6           339.1 
         3056.9           334.7 
         3057.2           334.9 
         3057.5           338.3 
         3057.8           341.3 
         3058.1           340.5 
         3058.4           335.4 
         3058.7           330.3 
           3059           332.3 
         3059.3           348.7 
         3059.6           382.5 
         3059.9             431 
         3060.2           486.8 
         3060.5           540.8 
         3060.8           585.3 
         3061.1           615.9 
         3061.4           631.3 
         3061.7           631.4 
           3062           615.5 
         3062.3           581.5 
         3062.6           529.1 
         3062.9           461.8 
         3063.2           388.9 
         3063.5           322.7 
         3063.8           273.7 
         3064.1           246.5 
         3064.4           238.6 
         3064.7           242.6 
           3065           250.5 
         3065.3           258.2 
         3065.6             266 
         3065.9           277.5 
         3066.2           295.6 
         3066.5             320 
         3066.8           347.1 
         3067.1           372.2 
         3067.4           392.8 
         3067.7           409.4 
           3068             424 
         3068.3           437.3 
         3068.6           446.4 
         3068.9           446.4 
         3069.2           433.4 
         3069.5           408.4 
         3069.8           378.4 
         3070.1             354 
         3070.4           345.1 
         3070.7           356.8 
           3071           387.8 
         3071.3           432.7 
         3071.6           484.9 
         3071.9           539.3 
         3072.2           592.5 
         3072.5           641.8 
         3072.8           683.4 
         3073.1           714.2 
         3073.4           732.7 
         3073.7           739.2 
           3074           735.1 
         3074.3           722.6 
         3074.6             706 
         3074.9           692.9 
         3075.2           693.4 
         3075.5           715.6 
         3075.8             760 
         3076.1           816.5 
         3076.4           867.1 
         3076.7           894.7 
           3077           891.3 
         3077.3           860.7 
         3077.6           815.3 
         3077.9           769.4 
         3078.2           732.1 
         3078.5           704.4 
         3078.8           680.8 
         3079.1           653.4 
         3079.4           616.7 
         3079.7           569.7 
           3080           515.3 
         3080.3           458.3 
         3080.6           403.6 
         3080.9           355.7 
         3081.2           318.8 
         3081.5           296.5 
         3081.8           290.1 
         3082.1           297.5 
         3082.4           312.6 
         3082.7           327.9 
           3083           337.9 
         3083.3           342.5 
         3083.6           346.3 
         3083.9           355.8 
         3084.2           375.9 
         3084.5           408.2 
         3084.8           450.9 
         3085.1           498.6 
         3085.4           544.1 
         3085.7           581.2 
           3086           608.3 
         3086.3           631.5 
         3086.6           662.8 
         3086.9             714 
         3087.2           790.1 
         3087.5           884.2 
         3087.8           977.6 
         3088.1            1045 
         3088.4            1063 
         3088.7            1021 
           3089           924.9 
         3089.3           796.4 
         3089.6           661.7 
         3089.9           542.8 
         3090.2           451.2 
         3090.5           387.5 
         3090.8           345.2 
         3091.1           316.2 
         3091.4           293.9 
         3091.7           275.2 
           3092           261.3 
         3092.3           256.6 
         3092.6           267.3 
         3092.9           297.7 
         3093.2           347.4 
         3093.5           410.4 
         3093.8           477.1 
         3094.1           537.1 
         3094.4           582.5 
         3094.7             608 
           3095           611.7 
         3095.3           594.8 
         3095.6           564.7 
         3095.9           535.2 
         3096.2           525.2 
         3096.5           552.6 
         3096.8           624.5 
         3097.1           731.2 
         3097.4             845 
         3097.7           929.4 
           3098           953.9 
         3098.3           906.9 
         3098.6             801 
         3098.9           666.7 
         3099.2             539 
         3099.5           444.6 
         3099.8           394.2 
         3100.1           382.6 
         3100.4           394.9 
         3100.7           415.1 
           3101           433.8 
         3101.3           480.5 
         3101.6           531.1 
         3101.9           610.2 
         3102.2           713.3 
         3102.5           825.5 
         3102.8           928.4 
         3103.1            1008 
         3103.4            1060 
         3103.7            1086 
           3104            1088 
         3104.3            1065 
         3104.6            1014 
         3104.9           931.9 
         3105.2           827.5 
         3105.5           714.8 
         3105.8           610.9 
         3106.1             530 
         3106.4           480.4 
         3106.7           464.8 
           3107             480 
         3107.3           518.2 
         3107.6           566.9 
         3107.9           611.9 
         3108.2           641.9 
         3108.5           652.6 
         3108.8             648 
         3109.1             639 
         3109.4           639.2 
         3109.7           659.8 
           3110           705.6 
         3110.3           771.9 
         3110.6           843.6 
         3110.9           899.7 
         3111.2           920.3 
         3111.5           895.4 
         3111.8             830 
         3112.1           741.5 
         3112.4           652.2 
         3112.7           582.2 
           3113           544.3 
         3113.3           543.6 
         3113.6           580.4 
         3113.9           651.5 
         3114.2           751.4 
         3114.5           870.4 
         3114.8           993.1 
         3115.1            1099 
         3115.4            1167 
         3115.7            1179 
           3116            1134 
         3116.3            1051 
         3116.6           962.1 
         3116.9           904.8 
         3117.2           904.9 
         3117.5             967 
         3117.8            1074 
         3118.1            1194 
         3118.4            1296 
         3118.7            1357 
           3119            1373 
         3119.3            1353 
         3119.6            1320 
         3119.9            1291 
         3120.2            1270 
         3120.5            1245 
         3120.8            1193 
         3121.1            1102 
         3121.4           978.3 
         3121.7           852.5 
           3122           761.6 
         3122.3           732.3 
         3122.6           766.9 
         3122.9           843.5 
         3123.2           926.6 
         3123.5           984.9 
         3123.8            1005 
         3124.1           994.9 
         3124.4           975.7 
         3124.7           968.1 
           3125           980.6 
         3125.3            1007 
         3125.6            1035 
         3125.9            1052 
         3126.2            1057 
         3126.5            1051 
         3126.8            1034 
         3127.1            1002 
         3127.4           951.5 
         3127.7           882.5 
           3128           803.8 
         3128.3           727.6 
         3128.6           665.3 
         3128.9           624.3 
         3129.2           606.9 
         3129.5           612.4 
         3129.8           640.6 
         3130.1           694.1 
         3130.4           777.7 
         3130.7           892.4 
           3131            1027 
         3131.3            1158 
         3131.6            1253 
         3131.9            1288 
         3132.2            1257 
         3132.5            1177 
         3132.8            1075 
         3133.1           979.2 
         3133.4           906.4 
         3133.7           868.8 
           3134           870.4 
         3134.3           904.3 
         3134.6           951.5 
         3134.9           986.3 
         3135.2           989.1 
         3135.5           957.8 
         3135.8           909.2 
         3136.1           868.5 
         3136.4           859.3 
         3136.7           893.2 
           3137           968.8 
         3137.3            1072 
         3137.6            1179 
         3137.9            1265 
         3138.2            1310 
         3138.5            1309 
         3138.8            1277 
         3139.1            1237 
         3139.4            1213 
         3139.7            1223 
           3140            1270 
         3140.3            1343 
         3140.6            1422 
         3140.9            1486 
         3141.2            1527 
         3141.5            1549 
         3141.8            1561 
         3142.1            1564 
         3142.4            1544 
         3142.7            1488 
           3143            1394 
         3143.3            1276 
         3143.6            1162 
         3143.9            1068 
         3144.2            1000 
         3144.5           948.6 
         3144.8           902.5 
         3145.1           856.3 
         3145.4           809.7 
         3145.7           766.1 
           3146           731.6 
         3146.3           714.7 
         3146.6           725.7 
         3146.9           774.2 
         3147.2             866 
         3147.5            1002 
         3147.8            1174 
         3148.1            1367 
         3148.4            1550 
         3148.7            1691 
           3149            1758 
         3149.3            1743 
         3149.6            1661 
         3149.9            1540 
         3150.2            1408 
         3150.5            1277 
         3150.8            1155 
         3151.1            1042 
         3151.4           942.8 
         3151.7           861.9 
           3152           803.7 
         3152.3             768 
         3152.6           750.5 
         3152.9           746.7 
         3153.2           756.5 
         3153.5           785.4 
         3153.8             841 
         3154.1           924.3 
         3154.4            1023 
         3154.7            1111 
           3155            1164 
         3155.3            1171 
         3155.6            1140 
         3155.9            1096 
         3156.2            1064 
         3156.5            1060 
         3156.8            1085 
         3157.1            1130 
         3157.4            1184 
         3157.7            1240 
           3158            1297 
         3158.3            1356 
         3158.6            1415 
         3158.9            1462 
         3159.2            1479 
         3159.5            1455 
         3159.8            1393 
         3160.1            1316 
         3160.4            1255 
         3160.7            1236 
           3161            1267 
         3161.3            1340 
         3161.6            1450 
         3161.9            1595 
         3162.2            1778 
         3162.5            1991 
         3162.8            2205 
         3163.1            2377 
         3163.4            2479 
         3163.7            2505 
           3164            2471 
         3164.3            2400 
         3164.6            2305 
         3164.9            2195 
         3165.2            2083 
         3165.5            1991 
         3165.8            1950 
         3166.1            1988 
         3166.4            2114 
         3166.7            2314 
           3167            2546 
         3167.3            2747 
         3167.6            2857 
         3167.9            2843 
         3168.2            2723 
         3168.5            2555 
         3168.8            2408 
         3169.1            2325 
         3169.4            2300 
         3169.7            2293 
           3170            2261 
         3170.3            2184 
         3170.6            2081 
         3170.9            1991 
         3171.2            1952 
         3171.5            1974 
         3171.8            2038 
         3172.1            2108 
         3172.4            2158 
         3172.7            2191 
           3173            2237 
         3173.3            2340 
         3173.6            2518 
         3173.9            2756 
         3174.2            3010 
         3174.5            3228 
         3174.8            3385 
         3175.1            3468 
         3175.4            3473 
         3175.7            3393 
           3176            3226 
         3176.3            2989 
         3176.6            2716 
         3176.9            2456 
         3177.2            2258 
         3177.5            2146 
         3177.8            2118 
         3178.1            2144 
