# Granada HRES Library
# atmosphere = Spectrum  (atmosphere model used)
# feh = 0  (value for [Fe/H] for the model.)
# logg = 2.5 log(cm/s2) (value for Log(G) for the model.)
# teff = 5750 K (value for the effective temperature for the model. Temperatures are given in K)
#
# column 1: WAVELENGTH (ANGSTROM), Wavelength in Angstrom
# column 2: FLUX (ERG/CM2/S/A), Flux in erg/cm2/s/A
         3000.2        1.534e+6 
         3000.5        1.526e+6 
         3000.8        1.523e+6 
         3001.1        1.522e+6 
         3001.4        1.518e+6 
         3001.7        1.508e+6 
           3002        1.499e+6 
         3002.3        1.502e+6 
         3002.6        1.533e+6 
         3002.9         1.61e+6 
         3003.2        1.744e+6 
         3003.5        1.937e+6 
         3003.8        2.181e+6 
         3004.1        2.457e+6 
         3004.4        2.738e+6 
         3004.7        2.996e+6 
           3005        3.201e+6 
         3005.3        3.332e+6 
         3005.6        3.377e+6 
         3005.9        3.334e+6 
         3006.2        3.214e+6 
         3006.5        3.037e+6 
         3006.8         2.83e+6 
         3007.1        2.622e+6 
         3007.4        2.439e+6 
         3007.7        2.302e+6 
           3008        2.224e+6 
         3008.3        2.217e+6 
         3008.6        2.283e+6 
         3008.9        2.419e+6 
         3009.2         2.61e+6 
         3009.5        2.832e+6 
         3009.8        3.058e+6 
         3010.1        3.255e+6 
         3010.4        3.397e+6 
         3010.7        3.468e+6 
           3011        3.469e+6 
         3011.3        3.414e+6 
         3011.6         3.33e+6 
         3011.9        3.242e+6 
         3012.2        3.168e+6 
         3012.5        3.114e+6 
         3012.8        3.077e+6 
         3013.1        3.052e+6 
         3013.4        3.033e+6 
         3013.7        3.016e+6 
           3014          3.0e+6 
         3014.3        2.984e+6 
         3014.6        2.969e+6 
         3014.9        2.955e+6 
         3015.2        2.944e+6 
         3015.5        2.935e+6 
         3015.8         2.93e+6 
         3016.1        2.923e+6 
         3016.4        2.905e+6 
         3016.7        2.869e+6 
           3017        2.806e+6 
         3017.3        2.715e+6 
         3017.6        2.596e+6 
         3017.9        2.454e+6 
         3018.2        2.292e+6 
         3018.5        2.113e+6 
         3018.8        1.921e+6 
         3019.1        1.719e+6 
         3019.4        1.519e+6 
         3019.7        1.334e+6 
           3020        1.185e+6 
         3020.3        1.096e+6 
         3020.6        1.092e+6 
         3020.9         1.19e+6 
         3021.2        1.391e+6 
         3021.5        1.681e+6 
         3021.8        2.027e+6 
         3022.1        2.384e+6 
         3022.4        2.708e+6 
         3022.7        2.964e+6 
           3023         3.13e+6 
         3023.3        3.202e+6 
         3023.6        3.194e+6 
         3023.9        3.123e+6 
         3024.2        3.007e+6 
         3024.5         2.86e+6 
         3024.8          2.7e+6 
         3025.1        2.548e+6 
         3025.4        2.429e+6 
         3025.7        2.375e+6 
           3026        2.409e+6 
         3026.3        2.539e+6 
         3026.6         2.75e+6 
         3026.9        3.013e+6 
         3027.2        3.284e+6 
         3027.5        3.525e+6 
         3027.8        3.701e+6 
         3028.1        3.793e+6 
         3028.4        3.797e+6 
         3028.7        3.721e+6 
           3029        3.582e+6 
         3029.3        3.403e+6 
         3029.6         3.21e+6 
         3029.9        3.022e+6 
         3030.2        2.856e+6 
         3030.5        2.726e+6 
         3030.8        2.643e+6 
         3031.1        2.619e+6 
         3031.4        2.659e+6 
         3031.7        2.755e+6 
           3032        2.891e+6 
         3032.3        3.041e+6 
         3032.6        3.178e+6 
         3032.9        3.287e+6 
         3033.2        3.363e+6 
         3033.5        3.416e+6 
         3033.8        3.459e+6 
         3034.1        3.505e+6 
         3034.4        3.554e+6 
         3034.7          3.6e+6 
           3035        3.621e+6 
         3035.3        3.592e+6 
         3035.6        3.492e+6 
         3035.9         3.31e+6 
         3036.2        3.055e+6 
         3036.5        2.756e+6 
         3036.8        2.456e+6 
         3037.1        2.199e+6 
         3037.4        2.024e+6 
         3037.7        1.954e+6 
           3038        1.989e+6 
         3038.3        2.113e+6 
         3038.6        2.294e+6 
         3038.9        2.497e+6 
         3039.2        2.687e+6 
         3039.5        2.837e+6 
         3039.8        2.931e+6 
         3040.1        2.962e+6 
         3040.4        2.935e+6 
         3040.7        2.861e+6 
           3041        2.759e+6 
         3041.3         2.65e+6 
         3041.6        2.557e+6 
         3041.9        2.497e+6 
         3042.2        2.484e+6 
         3042.5        2.518e+6 
         3042.8        2.588e+6 
         3043.1        2.675e+6 
         3043.4        2.759e+6 
         3043.7        2.824e+6 
           3044        2.863e+6 
         3044.3        2.881e+6 
         3044.6        2.883e+6 
         3044.9        2.877e+6 
         3045.2        2.862e+6 
         3045.5         2.83e+6 
         3045.8        2.769e+6 
         3046.1        2.672e+6 
         3046.4        2.541e+6 
         3046.7        2.392e+6 
           3047        2.253e+6 
         3047.3        2.157e+6 
         3047.6        2.131e+6 
         3047.9        2.183e+6 
         3048.2        2.305e+6 
         3048.5        2.472e+6 
         3048.8        2.652e+6 
         3049.1        2.815e+6 
         3049.4        2.945e+6 
         3049.7        3.039e+6 
           3050        3.113e+6 
         3050.3        3.195e+6 
         3050.6        3.309e+6 
         3050.9        3.465e+6 
         3051.2        3.654e+6 
         3051.5        3.847e+6 
         3051.8        4.001e+6 
         3052.1         4.08e+6 
         3052.4        4.061e+6 
         3052.7        3.943e+6 
           3053         3.75e+6 
         3053.3        3.518e+6 
         3053.6        3.292e+6 
         3053.9        3.109e+6 
         3054.2        2.994e+6 
         3054.5        2.954e+6 
         3054.8        2.977e+6 
         3055.1        3.034e+6 
         3055.4        3.086e+6 
         3055.7        3.098e+6 
           3056        3.046e+6 
         3056.3        2.921e+6 
         3056.6        2.739e+6 
         3056.9        2.528e+6 
         3057.2        2.323e+6 
         3057.5        2.149e+6 
         3057.8        2.025e+6 
         3058.1        1.953e+6 
         3058.4        1.932e+6 
         3058.7        1.959e+6 
           3059        2.041e+6 
         3059.3         2.18e+6 
         3059.6        2.378e+6 
         3059.9        2.623e+6 
         3060.2        2.889e+6 
         3060.5        3.143e+6 
         3060.8        3.348e+6 
         3061.1         3.48e+6 
         3061.4        3.527e+6 
         3061.7        3.489e+6 
           3062         3.38e+6 
         3062.3        3.219e+6 
         3062.6        3.027e+6 
         3062.9        2.829e+6 
         3063.2        2.649e+6 
         3063.5        2.507e+6 
         3063.8        2.414e+6 
         3064.1        2.369e+6 
         3064.4        2.359e+6 
         3064.7        2.361e+6 
           3065        2.352e+6 
         3065.3        2.314e+6 
         3065.6        2.242e+6 
         3065.9        2.146e+6 
         3066.2        2.044e+6 
         3066.5        1.963e+6 
         3066.8        1.926e+6 
         3067.1        1.949e+6 
         3067.4        2.042e+6 
         3067.7        2.199e+6 
           3068        2.407e+6 
         3068.3        2.643e+6 
         3068.6        2.877e+6 
         3068.9        3.081e+6 
         3069.2         3.23e+6 
         3069.5        3.312e+6 
         3069.8         3.33e+6 
         3070.1        3.297e+6 
         3070.4         3.23e+6 
         3070.7        3.148e+6 
           3071        3.061e+6 
         3071.3        2.973e+6 
         3071.6        2.892e+6 
         3071.9        2.826e+6 
         3072.2        2.786e+6 
         3072.5        2.785e+6 
         3072.8        2.826e+6 
         3073.1        2.897e+6 
         3073.4        2.975e+6 
         3073.7         3.03e+6 
           3074         3.04e+6 
         3074.3        2.999e+6 
         3074.6         2.92e+6 
         3074.9        2.837e+6 
         3075.2        2.785e+6 
         3075.5        2.795e+6 
         3075.8        2.872e+6 
         3076.1        2.998e+6 
         3076.4        3.135e+6 
         3076.7        3.244e+6 
           3077        3.294e+6 
         3077.3        3.274e+6 
         3077.6          3.2e+6 
         3077.9        3.101e+6 
         3078.2        3.014e+6 
         3078.5        2.967e+6 
         3078.8        2.975e+6 
         3079.1        3.032e+6 
         3079.4        3.115e+6 
         3079.7        3.195e+6 
           3080        3.245e+6 
         3080.3        3.248e+6 
         3080.6        3.201e+6 
         3080.9        3.114e+6 
         3081.2        3.001e+6 
         3081.5        2.885e+6 
         3081.8        2.787e+6 
         3082.1        2.726e+6 
         3082.4        2.716e+6 
         3082.7        2.763e+6 
           3083         2.87e+6 
         3083.3        3.034e+6 
         3083.6        3.242e+6 
         3083.9        3.478e+6 
         3084.2        3.717e+6 
         3084.5        3.931e+6 
         3084.8        4.094e+6 
         3085.1        4.185e+6 
         3085.4        4.191e+6 
         3085.7        4.106e+6 
           3086        3.933e+6 
         3086.3        3.691e+6 
         3086.6        3.407e+6 
         3086.9        3.119e+6 
         3087.2        2.862e+6 
         3087.5        2.665e+6 
         3087.8        2.543e+6 
         3088.1        2.491e+6 
         3088.4        2.492e+6 
         3088.7        2.519e+6 
           3089        2.546e+6 
         3089.3         2.56e+6 
         3089.6        2.561e+6 
         3089.9         2.56e+6 
         3090.2        2.566e+6 
         3090.5        2.586e+6 
         3090.8        2.617e+6 
         3091.1        2.648e+6 
         3091.4        2.665e+6 
         3091.7        2.649e+6 
           3092        2.595e+6 
         3092.3        2.507e+6 
         3092.6        2.408e+6 
         3092.9        2.327e+6 
         3093.2        2.291e+6 
         3093.5        2.311e+6 
         3093.8        2.382e+6 
         3094.1        2.483e+6 
         3094.4        2.583e+6 
         3094.7        2.653e+6 
           3095        2.676e+6 
         3095.3        2.644e+6 
         3095.6        2.567e+6 
         3095.9        2.466e+6 
         3096.2         2.37e+6 
         3096.5        2.303e+6 
         3096.8        2.282e+6 
         3097.1        2.305e+6 
         3097.4        2.355e+6 
         3097.7        2.404e+6 
           3098        2.416e+6 
         3098.3        2.369e+6 
         3098.6        2.255e+6 
         3098.9        2.084e+6 
         3099.2        1.884e+6 
         3099.5        1.684e+6 
         3099.8        1.514e+6 
         3100.1        1.393e+6 
         3100.4        1.333e+6 
         3100.7        1.338e+6 
           3101        1.407e+6 
         3101.3        1.537e+6 
         3101.6        1.723e+6 
         3101.9        1.954e+6 
         3102.2        2.213e+6 
         3102.5        2.475e+6 
         3102.8         2.71e+6 
         3103.1        2.892e+6 
         3103.4        3.004e+6 
         3103.7        3.041e+6 
           3104        3.008e+6 
         3104.3        2.926e+6 
         3104.6        2.822e+6 
         3104.9        2.726e+6 
         3105.2        2.666e+6 
         3105.5        2.661e+6 
         3105.8        2.719e+6 
         3106.1        2.834e+6 
         3106.4        2.988e+6 
         3106.7         3.16e+6 
           3107        3.328e+6 
         3107.3        3.472e+6 
         3107.6        3.581e+6 
         3107.9        3.648e+6 
         3108.2         3.67e+6 
         3108.5         3.65e+6 
         3108.8        3.593e+6 
         3109.1         3.51e+6 
         3109.4        3.417e+6 
         3109.7        3.333e+6 
           3110        3.278e+6 
         3110.3        3.268e+6 
         3110.6        3.306e+6 
         3110.9        3.386e+6 
         3111.2         3.49e+6 
         3111.5        3.598e+6 
         3111.8        3.689e+6 
         3112.1        3.745e+6 
         3112.4        3.757e+6 
         3112.7        3.722e+6 
           3113        3.645e+6 
         3113.3         3.54e+6 
         3113.6        3.425e+6 
         3113.9        3.323e+6 
         3114.2        3.251e+6 
         3114.5         3.22e+6 
         3114.8         3.23e+6 
         3115.1        3.267e+6 
         3115.4        3.309e+6 
         3115.7        3.333e+6 
           3116        3.316e+6 
         3116.3        3.247e+6 
         3116.6         3.13e+6 
         3116.9        2.975e+6 
         3117.2        2.803e+6 
         3117.5        2.633e+6 
         3117.8        2.483e+6 
         3118.1        2.362e+6 
         3118.4        2.275e+6 
         3118.7        2.219e+6 
           3119         2.19e+6 
         3119.3        2.185e+6 
         3119.6        2.203e+6 
         3119.9        2.245e+6 
         3120.2        2.305e+6 
         3120.5        2.375e+6 
         3120.8         2.44e+6 
         3121.1        2.491e+6 
         3121.4        2.522e+6 
         3121.7        2.541e+6 
           3122        2.562e+6 
         3122.3        2.598e+6 
         3122.6        2.658e+6 
         3122.9         2.74e+6 
         3123.2         2.83e+6 
         3123.5        2.906e+6 
         3123.8        2.946e+6 
         3124.1        2.939e+6 
         3124.4        2.887e+6 
         3124.7         2.81e+6 
           3125        2.743e+6 
         3125.3        2.721e+6 
         3125.6        2.766e+6 
         3125.9        2.883e+6 
         3126.2        3.055e+6 
         3126.5        3.247e+6 
         3126.8        3.419e+6 
         3127.1        3.537e+6 
         3127.4        3.581e+6 
         3127.7        3.552e+6 
           3128        3.468e+6 
         3128.3        3.354e+6 
         3128.6        3.234e+6 
         3128.9        3.122e+6 
         3129.2         3.02e+6 
         3129.5        2.921e+6 
         3129.8         2.82e+6 
         3130.1        2.716e+6 
         3130.4        2.616e+6 
         3130.7        2.531e+6 
           3131        2.467e+6 
         3131.3        2.426e+6 
         3131.6        2.405e+6 
         3131.9        2.394e+6 
         3132.2        2.388e+6 
         3132.5        2.382e+6 
         3132.8        2.375e+6 
         3133.1        2.368e+6 
         3133.4         2.37e+6 
         3133.7        2.389e+6 
           3134        2.436e+6 
         3134.3        2.514e+6 
         3134.6        2.618e+6 
         3134.9        2.734e+6 
         3135.2        2.844e+6 
         3135.5        2.932e+6 
         3135.8        2.993e+6 
         3136.1        3.033e+6 
         3136.4        3.068e+6 
         3136.7        3.113e+6 
           3137        3.174e+6 
         3137.3        3.243e+6 
         3137.6        3.309e+6 
         3137.9        3.356e+6 
         3138.2        3.376e+6 
         3138.5        3.369e+6 
         3138.8        3.345e+6 
         3139.1        3.319e+6 
         3139.4        3.306e+6 
         3139.7        3.317e+6 
           3140        3.356e+6 
         3140.3        3.416e+6 
         3140.6        3.481e+6 
         3140.9        3.528e+6 
         3141.2        3.534e+6 
         3141.5        3.482e+6 
         3141.8        3.364e+6 
         3142.1        3.182e+6 
         3142.4        2.947e+6 
         3142.7        2.674e+6 
           3143        2.384e+6 
         3143.3        2.099e+6 
         3143.6        1.841e+6 
         3143.9        1.634e+6 
         3144.2        1.498e+6 
         3144.5        1.443e+6 
         3144.8        1.472e+6 
         3145.1        1.573e+6 
         3145.4        1.726e+6 
         3145.7        1.905e+6 
           3146        2.084e+6 
         3146.3        2.243e+6 
         3146.6        2.377e+6 
         3146.9        2.488e+6 
         3147.2         2.59e+6 
         3147.5        2.695e+6 
         3147.8        2.812e+6 
         3148.1         2.94e+6 
         3148.4        3.071e+6 
         3148.7        3.195e+6 
           3149        3.305e+6 
         3149.3        3.398e+6 
         3149.6         3.48e+6 
         3149.9        3.554e+6 
         3150.2        3.621e+6 
         3150.5        3.677e+6 
         3150.8        3.712e+6 
         3151.1        3.722e+6 
         3151.4         3.71e+6 
         3151.7        3.685e+6 
           3152        3.657e+6 
         3152.3        3.634e+6 
         3152.6        3.617e+6 
         3152.9        3.597e+6 
         3153.2        3.562e+6 
         3153.5        3.501e+6 
         3153.8        3.412e+6 
         3154.1        3.303e+6 
         3154.4        3.187e+6 
         3154.7        3.082e+6 
           3155        2.997e+6 
         3155.3        2.936e+6 
         3155.6        2.894e+6 
         3155.9        2.855e+6 
         3156.2        2.806e+6 
         3156.5        2.732e+6 
         3156.8        2.627e+6 
         3157.1        2.494e+6 
         3157.4        2.341e+6 
         3157.7        2.187e+6 
           3158        2.049e+6 
         3158.3        1.943e+6 
         3158.6        1.879e+6 
         3158.9        1.858e+6 
         3159.2        1.871e+6 
         3159.5        1.901e+6 
         3159.8        1.925e+6 
         3160.1        1.928e+6 
         3160.4        1.903e+6 
         3160.7        1.859e+6 
           3161        1.812e+6 
         3161.3        1.786e+6 
         3161.6          1.8e+6 
         3161.9        1.867e+6 
         3162.2        1.988e+6 
         3162.5        2.151e+6 
         3162.8        2.335e+6 
         3163.1        2.509e+6 
         3163.4        2.648e+6 
         3163.7        2.732e+6 
           3164        2.759e+6 
         3164.3        2.741e+6 
         3164.6        2.702e+6 
         3164.9        2.667e+6 
         3165.2        2.656e+6 
         3165.5        2.679e+6 
         3165.8        2.733e+6 
         3166.1        2.809e+6 
         3166.4        2.886e+6 
         3166.7        2.945e+6 
           3167        2.967e+6 
         3167.3        2.944e+6 
         3167.6        2.882e+6 
         3167.9        2.795e+6 
         3168.2        2.712e+6 
         3168.5        2.661e+6 
         3168.8        2.666e+6 
         3169.1        2.733e+6 
         3169.4         2.86e+6 
         3169.7        3.026e+6 
           3170        3.208e+6 
         3170.3        3.383e+6 
         3170.6        3.535e+6 
         3170.9         3.66e+6 
         3171.2        3.758e+6 
         3171.5        3.833e+6 
         3171.8        3.888e+6 
         3172.1         3.92e+6 
         3172.4        3.922e+6 
         3172.7        3.887e+6 
           3173        3.815e+6 
         3173.3        3.712e+6 
         3173.6        3.592e+6 
         3173.9        3.472e+6 
         3174.2        3.374e+6 
         3174.5        3.313e+6 
         3174.8        3.304e+6 
         3175.1        3.352e+6 
         3175.4        3.448e+6 
         3175.7         3.57e+6 
           3176        3.688e+6 
         3176.3        3.768e+6 
         3176.6        3.784e+6 
         3176.9        3.723e+6 
         3177.2        3.586e+6 
         3177.5        3.391e+6 
         3177.8        3.157e+6 
         3178.1        2.908e+6 
