# Granada HRES Library
# atmosphere = Spectrum  (atmosphere model used)
# feh = -10  (value for [Fe/H] for the model.)
# logg = 1 log(cm/s2) (value for Log(G) for the model.)
# teff = 4750 K (value for the effective temperature for the model. Temperatures are given in K)
#
# column 1: WAVELENGTH (ANGSTROM), Wavelength in Angstrom
# column 2: FLUX (ERG/CM2/S/A), Flux in erg/cm2/s/A
         3000.2           38990 
         3000.5           40130 
         3000.8           41740 
         3001.1           43860 
         3001.4           46470 
         3001.7           49730 
           3002           53820 
         3002.3           59120 
         3002.6           66050 
         3002.9           75000 
         3003.2           86130 
         3003.5           99250 
         3003.8          113700 
         3004.1          128600 
         3004.4          142400 
         3004.7          154000 
           3005          162000 
         3005.3          165800 
         3005.6          164900 
         3005.9          159500 
         3006.2          150100 
         3006.5          137800 
         3006.8          124000 
         3007.1          110400 
         3007.4           98450 
         3007.7           89610 
           3008           84880 
         3008.3           84760 
         3008.6           89310 
         3008.9           98060 
         3009.2          110100 
         3009.5          124200 
         3009.8          138800 
         3010.1          152300 
         3010.4          163300 
         3010.7          170900 
           3011          174700 
         3011.3          175200 
         3011.6          173300 
         3011.9          170200 
         3012.2          166800 
         3012.5          163700 
         3012.8          161300 
         3013.1          159300 
         3013.4          157800 
         3013.7          156400 
           3014          155000 
         3014.3          153600 
         3014.6          151900 
         3014.9          149900 
         3015.2          147200 
         3015.5          143800 
         3015.8          139500 
         3016.1          134200 
         3016.4          127800 
         3016.7          120400 
           3017          112200 
         3017.3          103400 
         3017.6           94310 
         3017.9           85090 
         3018.2           75900 
         3018.5           66790 
         3018.8           57910 
         3019.1           49430 
         3019.4           41670 
         3019.7           35060 
           3020           30090 
         3020.3           27210 
         3020.6           26870 
         3020.9           29380 
         3021.2           34760 
         3021.5           42750 
         3021.8           52790 
         3022.1           64010 
         3022.4           75430 
         3022.7           85980 
           3023           94790 
         3023.3          101200 
         3023.6          105000 
         3023.9          106100 
         3024.2          105000 
         3024.5          102200 
         3024.8           98760 
         3025.1           95850 
         3025.4           94860 
         3025.7           97110 
           3026          103500 
         3026.3          114100 
         3026.6          128200 
         3026.9          144300 
         3027.2          160600 
         3027.5          175200 
         3027.8          186600 
         3028.1          193900 
         3028.4          196900 
         3028.7          195900 
           3029          191700 
         3029.3          185300 
         3029.6          177900 
         3029.9          170400 
         3030.2          163800 
         3030.5          158600 
         3030.8          155600 
         3031.1          155100 
         3031.4          157400 
         3031.7          162200 
           3032          168800 
         3032.3          176600 
         3032.6          184300 
         3032.9          191500 
         3033.2          197700 
         3033.5          202800 
         3033.8          207100 
         3034.1          210500 
         3034.4          212600 
         3034.7          212800 
           3035          209900 
         3035.3          203200 
         3035.6          192100 
         3035.9          176900 
         3036.2          158900 
         3036.5          139800 
         3036.8          122300 
         3037.1          108600 
         3037.4          100500 
         3037.7           98720 
           3038          103000 
         3038.3          112100 
         3038.6          124100 
         3038.9          136800 
         3039.2          148200 
         3039.5          156900 
         3039.8          161800 
         3040.1          162900 
         3040.4          160700 
         3040.7          156000 
           3041          150200 
         3041.3          144600 
         3041.6          140400 
         3041.9          138800 
         3042.2          140200 
         3042.5          144500 
         3042.8          151000 
         3043.1          158600 
         3043.4          166000 
         3043.7          172300 
           3044          176700 
         3044.3          179100 
         3044.6          179400 
         3044.9          177700 
         3045.2          173700 
         3045.5          167300 
         3045.8          158300 
         3046.1          147000 
         3046.4          134200 
         3046.7          121400 
           3047          110200 
         3047.3          102700 
         3047.6          100100 
         3047.9          103100 
         3048.2          110900 
         3048.5          122200 
         3048.8          135000 
         3049.1          147400 
         3049.4          157800 
         3049.7          166100 
           3050          172700 
         3050.3          179000 
         3050.6          186300 
         3050.9          195400 
         3051.2          205900 
         3051.5          216500 
         3051.8          225100 
         3052.1          230000 
         3052.4          229600 
         3052.7          224000 
           3053          214300 
         3053.3          202500 
         3053.6          191000 
         3053.9          181900 
         3054.2          176500 
         3054.5          175000 
         3054.8          176500 
         3055.1          179000 
         3055.4          180600 
         3055.7          179300 
           3056          173800 
         3056.3          164000 
         3056.6          150400 
         3056.9          134600 
         3057.2          118400 
         3057.5          103500 
         3057.8           91380 
         3058.1           83000 
         3058.4           79000 
         3058.7           79790 
           3059           85490 
         3059.3           96000 
         3059.6          110700 
         3059.9          128400 
         3060.2          147600 
         3060.5          166500 
         3060.8          183000 
         3061.1          195800 
         3061.4          203700 
         3061.7          206500 
           3062          204200 
         3062.3          197700 
         3062.6          187800 
         3062.9          176000 
         3063.2          163800 
         3063.5          152400 
         3063.8          143000 
         3064.1          135900 
         3064.4          131000 
         3064.7          127800 
           3065          125200 
         3065.3          122400 
         3065.6          118700 
         3065.9          114100 
         3066.2          109500 
         3066.5          105700 
         3066.8          104200 
         3067.1          106100 
         3067.4          112100 
         3067.7          122100 
           3068          135500 
         3068.3          150900 
         3068.6          166900 
         3068.9          181700 
         3069.2          194100 
         3069.5          203300 
         3069.8          209100 
         3070.1          211700 
         3070.4          211700 
         3070.7          209700 
           3071          206300 
         3071.3          202100 
         3071.6          197800 
         3071.9          194100 
         3072.2          191900 
         3072.5          191800 
         3072.8          193700 
         3073.1          197000 
         3073.4          200400 
         3073.7          202600 
           3074          202500 
         3074.3          199800 
         3074.6          195300 
         3074.9          190500 
         3075.2          187300 
         3075.5          187000 
         3075.8          190100 
         3076.1          196100 
         3076.4          203200 
         3076.7          209600 
           3077          213700 
         3077.3          214500 
         3077.6          212500 
         3077.9          208600 
         3078.2          204400 
         3078.5          201200 
         3078.8          199800 
         3079.1          200000 
         3079.4          201200 
         3079.7          202300 
           3080          202000 
         3080.3          199900 
         3080.6          196000 
         3080.9          190600 
         3081.2          184800 
         3081.5          179300 
         3081.8          175200 
         3082.1          173100 
         3082.4          173500 
         3082.7          176500 
           3083          182300 
         3083.3          191000 
         3083.6          202200 
         3083.9          215400 
         3084.2          229400 
         3084.5          242900 
         3084.8          254200 
         3085.1          261600 
         3085.4          263800 
         3085.7          260200 
           3086          251100 
         3086.3          237700 
         3086.6          221600 
         3086.9          205200 
         3087.2          190600 
         3087.5          179400 
         3087.8          172400 
         3088.1          169200 
         3088.4          168700 
         3088.7          169300 
           3089          169600 
         3089.3          168900 
         3089.6          167100 
         3089.9          164600 
         3090.2          162100 
         3090.5          160300 
         3090.8          159300 
         3091.1          158800 
         3091.4          158300 
         3091.7          157200 
           3092          155000 
         3092.3          151900 
         3092.6          148500 
         3092.9          145900 
         3093.2          145200 
         3093.5          146900 
         3093.8          150900 
         3094.1          156400 
         3094.4          162200 
         3094.7          167100 
           3095          169900 
         3095.3          170400 
         3095.6          168700 
         3095.9          165700 
         3096.2          162500 
         3096.5          160000 
         3096.8          159000 
         3097.1          159100 
         3097.4          159500 
         3097.7          158800 
           3098          155600 
         3098.3          149000 
         3098.6          138900 
         3098.9          125900 
         3099.2          111500 
         3099.5           97480 
         3099.8           85490 
         3100.1           76880 
         3100.4           72480 
         3100.7           72640 
           3101           77430 
         3101.3           86660 
         3101.6           99880 
         3101.9          116300 
         3102.2          135000 
         3102.5          154300 
         3102.8          172700 
         3103.1          188500 
         3103.4          200600 
         3103.7          208000 
           3104          210900 
         3104.3          209800 
         3104.6          206200 
         3104.9          201500 
         3105.2          197800 
         3105.5          196400 
         3105.8          198300 
         3106.1          203600 
         3106.4          211600 
         3106.7          221300 
           3107          231100 
         3107.3          240100 
         3107.6          247100 
         3107.9          251500 
         3108.2          253000 
         3108.5          251800 
         3108.8          248300 
         3109.1          243400 
         3109.4          238200 
         3109.7          233900 
           3110          231900 
         3110.3          232600 
         3110.6          236300 
         3110.9          242200 
         3111.2          249400 
         3111.5          256200 
         3111.8          261400 
         3112.1          263800 
         3112.4          263000 
         3112.7          259100 
           3113          252800 
         3113.3          245400 
         3113.6          238400 
         3113.9          233000 
         3114.2          230500 
         3114.5          230800 
         3114.8          233600 
         3115.1          237300 
         3115.4          240500 
         3115.7          241300 
           3116          238700 
         3116.3          232300 
         3116.6          222500 
         3116.9          210700 
         3117.2          198200 
         3117.5          186300 
         3117.8          176300 
         3118.1          168600 
         3118.4          163400 
         3118.7          160600 
           3119          159900 
         3119.3          160700 
         3119.6          162700 
         3119.9          165500 
         3120.2          168600 
         3120.5          171300 
         3120.8          173000 
         3121.1          173200 
         3121.4          172200 
         3121.7          170700 
           3122          169600 
         3122.3          170100 
         3122.6          172600 
         3122.9          177100 
         3123.2          183100 
         3123.5          189200 
         3123.8          194200 
         3124.1          197200 
         3124.4          197900 
         3124.7          196900 
           3125          195300 
         3125.3          194700 
         3125.6          196200 
         3125.9          200300 
         3126.2          206800 
         3126.5          214400 
         3126.8          221800 
         3127.1          227500 
         3127.4          230400 
         3127.7          230100 
           3128          227100 
         3128.3          222100 
         3128.6          216300 
         3128.9          210300 
         3129.2          204900 
         3129.5          200100 
         3129.8          196200 
         3130.1          193300 
         3130.4          191500 
         3130.7          190800 
           3131          191100 
         3131.3          192000 
         3131.6          192800 
         3131.9          193000 
         3132.2          192100 
         3132.5          190100 
         3132.8          187200 
         3133.1          184100 
         3133.4          181800 
         3133.7          181200 
           3134          183000 
         3134.3          187600 
         3134.6          194400 
         3134.9          202300 
         3135.2          209800 
         3135.5          216000 
         3135.8          220000 
         3136.1          222100 
         3136.4          222800 
         3136.7          222900 
           3137          222800 
         3137.3          222700 
         3137.6          222500 
         3137.9          222100 
         3138.2          221300 
         3138.5          220500 
         3138.8          220300 
         3139.1          221100 
         3139.4          223500 
         3139.7          227600 
           3140          232900 
         3140.3          238900 
         3140.6          244400 
         3140.9          248100 
         3141.2          248700 
         3141.5          245300 
         3141.8          237400 
         3142.1          225000 
         3142.4          208800 
         3142.7          189700 
           3143          169100 
         3143.3          148900 
         3143.6          130500 
         3143.9          115600 
         3144.2          105200 
         3144.5           99760 
         3144.8           99350 
         3145.1          103200 
         3145.4          110300 
         3145.7          119300 
           3146          128900 
         3146.3          138400 
         3146.6          147500 
         3146.9          156600 
         3147.2          166000 
         3147.5          176300 
         3147.8          187700 
         3148.1          199600 
         3148.4          211500 
         3148.7          222600 
           3149          232200 
         3149.3          240100 
         3149.6          246100 
         3149.9          250600 
         3150.2          253800 
         3150.5          255500 
         3150.8          255700 
         3151.1          254400 
         3151.4          252000 
         3151.7          249100 
           3152          246700 
         3152.3          245400 
         3152.6          245300 
         3152.9          246000 
         3153.2          246700 
         3153.5          246600 
         3153.8          245000 
         3154.1          241800 
         3154.4          237400 
         3154.7          232300 
           3155          226800 
         3155.3          220900 
         3155.6          214200 
         3155.9          206300 
         3156.2          196900 
         3156.5          186100 
         3156.8          174500 
         3157.1          163200 
         3157.4          153300 
         3157.7          145700 
           3158          141000 
         3158.3          139100 
         3158.6          139500 
         3158.9          141200 
         3159.2          143200 
         3159.5          144700 
         3159.8          145000 
         3160.1          143900 
         3160.4          141800 
         3160.7          139500 
           3161          138100 
         3161.3          138700 
         3161.6          142000 
         3161.9          148200 
         3162.2          156700 
         3162.5          166700 
         3162.8          176600 
         3163.1          185200 
         3163.4          191200 
         3163.7          194000 
           3164          193900 
         3164.3          191800 
         3164.6          189200 
         3164.9          187400 
         3165.2          187800 
         3165.5          190600 
         3165.8          195800 
         3166.1          202400 
         3166.4          209100 
         3166.7          214600 
           3167          217700 
         3167.3          217800 
         3167.6          215000 
         3167.9          210400 
         3168.2          205400 
         3168.5          201900 
         3168.8          201500 
         3169.1          205000 
         3169.4          212300 
         3169.7          222800 
           3170          235100 
         3170.3          247800 
         3170.6          259700 
         3170.9          270200 
         3171.2          279000 
         3171.5          286000 
         3171.8          291100 
         3172.1          294100 
         3172.4          294500 
         3172.7          292300 
           3173          287500 
         3173.3          280800 
         3173.6          273300 
         3173.9          266200 
         3174.2          260900 
         3174.5          258500 
         3174.8          259400 
         3175.1          263800 
         3175.4          270900 
         3175.7          279500 
           3176          287900 
         3176.3          294500 
         3176.6          298100 
         3176.9          298100 
         3177.2          294900 
         3177.5          288900 
         3177.8          281100 
         3178.1          272200 
