# Granada HRES Library
# atmosphere = Spectrum  (atmosphere model used)
# feh = 0  (value for [Fe/H] for the model.)
# logg = 0 log(cm/s2) (value for Log(G) for the model.)
# teff = 4750 K (value for the effective temperature for the model. Temperatures are given in K)
#
# column 1: WAVELENGTH (ANGSTROM), Wavelength in Angstrom
# column 2: FLUX (ERG/CM2/S/A), Flux in erg/cm2/s/A
         3000.2            2599 
         3000.5            2738 
         3000.8            2966 
         3001.1            3282 
         3001.4            3707 
         3001.7            4261 
           3002            5022 
         3002.3            6091 
         3002.6            7629 
         3002.9            9810 
         3003.2           12790 
         3003.5           16640 
         3003.8           21300 
         3004.1           26510 
         3004.4           31860 
         3004.7           36770 
           3005           40640 
         3005.3           42900 
         3005.6           43170 
         3005.9           41350 
         3006.2           37640 
         3006.5           32560 
         3006.8           26810 
         3007.1           21150 
         3007.4           16230 
         3007.7           12510 
           3008           10220 
         3008.3            9413 
         3008.6           10030 
         3008.9           11970 
         3009.2           15040 
         3009.5           18950 
         3009.8           23310 
         3010.1           27610 
         3010.4           31310 
         3010.7           33980 
           3011           35470 
         3011.3           35920 
         3011.6           35730 
         3011.9           35380 
         3012.2           35250 
         3012.5           35460 
         3012.8           35930 
         3013.1           36430 
         3013.4           36690 
         3013.7           36500 
           3014           35770 
         3014.3           34460 
         3014.6           32620 
         3014.9           30350 
         3015.2           27770 
         3015.5           25020 
         3015.8           22250 
         3016.1           19550 
         3016.4           16990 
         3016.7           14630 
           3017           12480 
         3017.3           10540 
         3017.6            8829 
         3017.9            7344 
         3018.2            6056 
         3018.5            4950 
         3018.8            3986 
         3019.1            3150 
         3019.4            2436 
         3019.7            1858 
           3020            1432 
         3020.3            1177 
         3020.6            1117 
         3020.9            1268 
         3021.2            1637 
         3021.5            2214 
         3021.8            2967 
         3022.1            3843 
         3022.4            4767 
         3022.7            5655 
           3023            6429 
         3023.3            7039 
         3023.6            7458 
         3023.9            7686 
         3024.2            7746 
         3024.5            7694 
         3024.8            7649 
         3025.1            7796 
         3025.4            8380 
         3025.7            9670 
           3026           11940 
         3026.3           15330 
         3026.6           19850 
         3026.9           25330 
         3027.2           31400 
         3027.5           37540 
         3027.8           43160 
         3028.1           47680 
         3028.4           50700 
         3028.7           52070 
           3029           51920 
         3029.3           50630 
         3029.6           48670 
         3029.9           46510 
         3030.2           44550 
         3030.5           43150 
         3030.8           42710 
         3031.1           43630 
         3031.4           46260 
         3031.7           50670 
           3032           56560 
         3032.3           63290 
         3032.6           70000 
         3032.9           75830 
         3033.2           80140 
         3033.5           82590 
         3033.8           83120 
         3034.1           81860 
         3034.4           78960 
         3034.7           74560 
           3035           68750 
         3035.3           61640 
         3035.6           53500 
         3035.9           44750 
         3036.2           36030 
         3036.5           28040 
         3036.8           21410 
         3037.1           16630 
         3037.4           13950 
         3037.7           13400 
           3038           14750 
         3038.3           17600 
         3038.6           21440 
         3038.9           25670 
         3039.2           29740 
         3039.5           33170 
         3039.8           35630 
         3040.1           36970 
         3040.4           37200 
         3040.7           36480 
           3041           35140 
         3041.3           33620 
         3041.6           32440 
         3041.9           32150 
         3042.2           33090 
         3042.5           35320 
         3042.8           38510 
         3043.1           42060 
         3043.4           45250 
         3043.7           47460 
           3044           48330 
         3044.3           47780 
         3044.6           45950 
         3044.9           43080 
         3045.2           39460 
         3045.5           35300 
         3045.8           30790 
         3046.1           26150 
         3046.4           21640 
         3046.7           17580 
           3047           14330 
         3047.3           12220 
         3047.6           11460 
         3047.9           12130 
         3048.2           14060 
         3048.5           16940 
         3048.8           20290 
         3049.1           23630 
         3049.4           26660 
         3049.7           29350 
           3050           32040 
         3050.3           35350 
         3050.6           39930 
         3050.9           46120 
         3051.2           53730 
         3051.5           61910 
         3051.8           69310 
         3052.1           74510 
         3052.4           76370 
         3052.7           74510 
           3053           69380 
         3053.3           62180 
         3053.6           54480 
         3053.9           47730 
         3054.2           42920 
         3054.5           40340 
         3054.8           39590 
         3055.1           39820 
         3055.4           40000 
         3055.7           39280 
           3056           37140 
         3056.3           33550 
         3056.6           28880 
         3056.9           23720 
         3057.2           18710 
         3057.5           14340 
         3057.8           10950 
         3058.1            8656 
         3058.4            7481 
         3058.7            7442 
           3059            8657 
         3059.3           11200 
         3059.6           15190 
         3059.9           20660 
         3060.2           27470 
         3060.5           35260 
         3060.8           43480 
         3061.1           51470 
         3061.4           58530 
         3061.7           64000 
           3062           67440 
         3062.3           68630 
         3062.6           67670 
         3062.9           65000 
         3063.2           61300 
         3063.5           57340 
         3063.8           53780 
         3064.1           51020 
         3064.4           49060 
         3064.7           47570 
           3065           46040 
         3065.3           43930 
         3065.6           41010 
         3065.9           37410 
         3066.2           33680 
         3066.5           30690 
         3066.8           29450 
         3067.1           30830 
         3067.4           35450 
         3067.7           43390 
           3068           54320 
         3068.3           67320 
         3068.6           81030 
         3068.9           93960 
         3069.2          104700 
         3069.5          112200 
         3069.8          116200 
         3070.1          116800 
         3070.4          114300 
         3070.7          109600 
           3071          103000 
         3071.3           95210 
         3071.6           86740 
         3071.9           78500 
         3072.2           71430 
         3072.5           66360 
         3072.8           63580 
         3073.1           62830 
         3073.4           63220 
         3073.7           63600 
           3074           63100 
         3074.3           61310 
         3074.6           58600 
         3074.9           56010 
         3075.2           54780 
         3075.5           55940 
         3075.8           59800 
         3076.1           65790 
         3076.4           72530 
         3076.7           78440 
           3077           82030 
         3077.3           82600 
         3077.6           80450 
         3077.9           76630 
         3078.2           72700 
         3078.5           70230 
         3078.8           70220 
         3079.1           72860 
         3079.4           77560 
         3079.7           83070 
           3080           88020 
         3080.3           91270 
         3080.6           92210 
         3080.9           90830 
         3081.2           87530 
         3081.5           83120 
         3081.8           78390 
         3082.1           74190 
         3082.4           71170 
         3082.7           69910 
           3083           71040 
         3083.3           75260 
         3083.6           83110 
         3083.9           94700 
         3084.2          109500 
         3084.5          126300 
         3084.8          142800 
         3085.1          156700 
         3085.4          165600 
         3085.7          167600 
           3086          162300 
         3086.3          150300 
         3086.6          133600 
         3086.9          115000 
         3087.2           97000 
         3087.5           81950 
         3087.8           71110 
         3088.1           64730 
         3088.4           62240 
         3088.7           62470 
           3089           64060 
         3089.3           65830 
         3089.6           67080 
         3089.9           67500 
         3090.2           67040 
         3090.5           65900 
         3090.8           64340 
         3091.1           62590 
         3091.4           60730 
         3091.7           58710 
           3092           56610 
         3092.3           54610 
         3092.6           53250 
         3092.9           53310 
         3093.2           55530 
         3093.5           60140 
         3093.8           66790 
         3094.1           74440 
         3094.4           81650 
         3094.7           87030 
           3095           89680 
         3095.3           89390 
         3095.6           86710 
         3095.9           82740 
         3096.2           78790 
         3096.5           75920 
         3096.8           74660 
         3097.1           74810 
         3097.4           75470 
         3097.7           75370 
           3098           73260 
         3098.3           68480 
         3098.6           61070 
         3098.9           51770 
         3099.2           41780 
         3099.5           32330 
         3099.8           24360 
         3100.1           18430 
         3100.4           14750 
         3100.7           13430 
           3101           14460 
         3101.3           17920 
         3101.6           23830 
         3101.9           32180 
         3102.2           42610 
         3102.5           54440 
         3102.8           66660 
         3103.1           78160 
         3103.4           87850 
         3103.7           95020 
           3104           99200 
         3104.3          100600 
         3104.6           99840 
         3104.9           98150 
         3105.2           96910 
         3105.5           97520 
         3105.8          101000 
         3106.1          107800 
         3106.4          117300 
         3106.7          128800 
           3107          140700 
         3107.3          151800 
         3107.6          161100 
         3107.9          167600 
         3108.2          170900 
         3108.5          170500 
         3108.8          166600 
         3109.1          159700 
         3109.4          150600 
         3109.7          141300 
           3110          133800 
         3110.3          130000 
         3110.6          131100 
         3110.9          136900 
         3111.2          146100 
         3111.5          156400 
         3111.8          165300 
         3112.1          170500 
         3112.4          170900 
         3112.7          166400 
           3113          158200 
         3113.3          148200 
         3113.6          138600 
         3113.9          131100 
         3114.2          126600 
         3114.5          125100 
         3114.8          125600 
         3115.1          126700 
         3115.4          127100 
         3115.7          125700 
           3116          122100 
         3116.3          116500 
         3116.6          109600 
         3116.9          101900 
         3117.2           94160 
         3117.5           87020 
         3117.8           80960 
         3118.1           76360 
         3118.4           73380 
         3118.7           71910 
           3119           71790 
         3119.3           72850 
         3119.6           75030 
         3119.9           78260 
         3120.2           82370 
         3120.5           86830 
         3120.8           90940 
         3121.1           93980 
         3121.4           95500 
         3121.7           95650 
           3122           95130 
         3122.3           94910 
         3122.6           95900 
         3122.9           98560 
         3123.2          102700 
         3123.5          107300 
         3123.8          110800 
         3124.1          112000 
         3124.4          110300 
         3124.7          105900 
           3125          100600 
         3125.3           96540 
         3125.6           95750 
         3125.9           99380 
         3126.2          107300 
         3126.5          117900 
         3126.8          129000 
         3127.1          138200 
         3127.4          143900 
         3127.7          145200 
           3128          142300 
         3128.3          136500 
         3128.6          129200 
         3128.9          121700 
         3129.2          114900 
         3129.5          109300 
         3129.8          104900 
         3130.1          101600 
         3130.4           99490 
         3130.7           98250 
           3131           97580 
         3131.3           96920 
         3131.6           95570 
         3131.9           92900 
         3132.2           88770 
         3132.5           83350 
         3132.8           77400 
         3133.1           71960 
         3133.4           68310 
         3133.7           67730 
           3134           70980 
         3134.3           78030 
         3134.6           88060 
         3134.9           99500 
         3135.2          110500 
         3135.5          119600 
         3135.8          125900 
         3136.1          129500 
         3136.4          131300 
         3136.7          132300 
           3137          133200 
         3137.3          134500 
         3137.6          136100 
         3137.9          137700 
         3138.2          139200 
         3138.5          140700 
         3138.8          142400 
         3139.1          144700 
         3139.4          148000 
         3139.7          152600 
           3140          158600 
         3140.3          165500 
         3140.6          172000 
         3140.9          176400 
         3141.2          177400 
         3141.5          173700 
         3141.8          165200 
         3142.1          152300 
         3142.4          136500 
         3142.7          119100 
           3143          101700 
         3143.3           85810 
         3143.6           72370 
         3143.9           62130 
         3144.2           55560 
         3144.5           52670 
         3144.8           53110 
         3145.1           56210 
         3145.4           60930 
         3145.7           66170 
           3146           71110 
         3146.3           75390 
         3146.6           79370 
         3146.9           83910 
         3147.2           90110 
         3147.5           98760 
         3147.8          110000 
         3148.1          123400 
         3148.4          137700 
         3148.7          151300 
           3149          163100 
         3149.3          172400 
         3149.6          179000 
         3149.9          183100 
         3150.2          184900 
         3150.5          184500 
         3150.8          182000 
         3151.1          177600 
         3151.4          172100 
         3151.7          166500 
           3152          161900 
         3152.3          158800 
         3152.6          157600 
         3152.9          157400 
         3153.2          157300 
         3153.5          156400 
         3153.8          154200 
         3154.1          150900 
         3154.4          146900 
         3154.7          142900 
           3155          139400 
         3155.3          136300 
         3155.6          133400 
         3155.9          130000 
         3156.2          125600 
         3156.5          119600 
         3156.8          112300 
         3157.1          104000 
         3157.4           95580 
         3157.7           88010 
           3158           82020 
         3158.3           77930 
         3158.6           75700 
         3158.9           74880 
         3159.2           74670 
         3159.5           74110 
         3159.8           72340 
         3160.1           69040 
         3160.4           64340 
         3160.7           59020 
           3161           54270 
         3161.3           51410 
         3161.6           51520 
         3161.9           55230 
         3162.2           62600 
         3162.5           72890 
         3162.8           84810 
         3163.1           96640 
         3163.4          106700 
         3163.7          113500 
           3164          116600 
         3164.3          116500 
         3164.6          114400 
         3164.9          112000 
         3165.2          110800 
         3165.5          111500 
         3165.8          114400 
         3166.1          118700 
         3166.4          123100 
         3166.7          126100 
           3167          126400 
         3167.3          123300 
         3167.6          117500 
         3167.9          110300 
         3168.2          103900 
         3168.5          100400 
         3168.8          101400 
         3169.1          107400 
         3169.4          117400 
         3169.7          130100 
           3170          143600 
         3170.3          156500 
         3170.6          168000 
         3170.9          178000 
         3171.2          187000 
         3171.5          195400 
         3171.8          203200 
         3172.1          210000 
         3172.4          214800 
         3172.7          216800 
           3173          215600 
         3173.3          211400 
         3173.6          205400 
         3173.9          198900 
         3174.2          193600 
         3174.5          190700 
         3174.8          191400 
         3175.1          195800 
         3175.4          203300 
         3175.7          212200 
           3176          220200 
         3176.3          225000 
         3176.6          224600 
         3176.9          218500 
         3177.2          207200 
         3177.5          192300 
         3177.8          175600 
         3178.1          159000 
