# Granada HRES Library
# atmosphere = Spectrum  (atmosphere model used)
# feh = 0  (value for [Fe/H] for the model.)
# logg = 4 log(cm/s2) (value for Log(G) for the model.)
# teff = 5750 K (value for the effective temperature for the model. Temperatures are given in K)
#
# column 1: WAVELENGTH (ANGSTROM), Wavelength in Angstrom
# column 2: FLUX (ERG/CM2/S/A), Flux in erg/cm2/s/A
         3000.2        1.263e+6 
         3000.5        1.273e+6 
         3000.8        1.292e+6 
         3001.1        1.314e+6 
         3001.4        1.335e+6 
         3001.7        1.354e+6 
           3002        1.378e+6 
         3002.3        1.417e+6 
         3002.6        1.493e+6 
         3002.9        1.626e+6 
         3003.2        1.832e+6 
         3003.5        2.113e+6 
         3003.8        2.457e+6 
         3004.1        2.838e+6 
         3004.4        3.217e+6 
         3004.7        3.552e+6 
           3005        3.804e+6 
         3005.3        3.942e+6 
         3005.6        3.953e+6 
         3005.9        3.837e+6 
         3006.2        3.613e+6 
         3006.5        3.317e+6 
         3006.8        2.991e+6 
         3007.1        2.681e+6 
         3007.4        2.425e+6 
         3007.7         2.25e+6 
           3008        2.172e+6 
         3008.3        2.194e+6 
         3008.6        2.313e+6 
         3008.9         2.52e+6 
         3009.2        2.796e+6 
         3009.5        3.115e+6 
         3009.8        3.438e+6 
         3010.1         3.72e+6 
         3010.4        3.924e+6 
         3010.7        4.022e+6 
           3011        4.019e+6 
         3011.3        3.939e+6 
         3011.6        3.828e+6 
         3011.9        3.729e+6 
         3012.2        3.668e+6 
         3012.5        3.649e+6 
         3012.8        3.659e+6 
         3013.1        3.675e+6 
         3013.4         3.68e+6 
         3013.7        3.663e+6 
           3014        3.627e+6 
         3014.3         3.58e+6 
         3014.6        3.532e+6 
         3014.9        3.489e+6 
         3015.2        3.454e+6 
         3015.5        3.425e+6 
         3015.8        3.395e+6 
         3016.1        3.355e+6 
         3016.4        3.294e+6 
         3016.7        3.203e+6 
           3017        3.077e+6 
         3017.3        2.919e+6 
         3017.6        2.733e+6 
         3017.9        2.524e+6 
         3018.2        2.298e+6 
         3018.5        2.061e+6 
         3018.8        1.817e+6 
         3019.1        1.577e+6 
         3019.4         1.35e+6 
         3019.7        1.154e+6 
           3020        1.004e+6 
         3020.3          920100 
         3020.6          921600 
         3020.9        1.023e+6 
         3021.2        1.228e+6 
         3021.5        1.528e+6 
         3021.8        1.897e+6 
         3022.1        2.298e+6 
         3022.4        2.687e+6 
         3022.7         3.02e+6 
           3023        3.265e+6 
         3023.3        3.405e+6 
         3023.6        3.442e+6 
         3023.9        3.388e+6 
         3024.2        3.261e+6 
         3024.5        3.084e+6 
         3024.8        2.884e+6 
         3025.1        2.695e+6 
         3025.4         2.56e+6 
         3025.7         2.52e+6 
           3026        2.609e+6 
         3026.3        2.835e+6 
         3026.6        3.177e+6 
         3026.9        3.588e+6 
         3027.2        4.008e+6 
         3027.5        4.376e+6 
         3027.8        4.645e+6 
         3028.1        4.788e+6 
         3028.4        4.799e+6 
         3028.7        4.693e+6 
           3029        4.497e+6 
         3029.3        4.244e+6 
         3029.6        3.969e+6 
         3029.9        3.704e+6 
         3030.2        3.474e+6 
         3030.5        3.299e+6 
         3030.8        3.193e+6 
         3031.1        3.172e+6 
         3031.4         3.24e+6 
         3031.7        3.389e+6 
           3032        3.596e+6 
         3032.3        3.825e+6 
         3032.6        4.044e+6 
         3032.9        4.227e+6 
         3033.2        4.368e+6 
         3033.5        4.474e+6 
         3033.8        4.562e+6 
         3034.1        4.642e+6 
         3034.4        4.715e+6 
         3034.7        4.766e+6 
           3035        4.769e+6 
         3035.3        4.689e+6 
         3035.6        4.502e+6 
         3035.9          4.2e+6 
         3036.2        3.802e+6 
         3036.5        3.352e+6 
         3036.8        2.913e+6 
         3037.1        2.548e+6 
         3037.4        2.311e+6 
         3037.7        2.231e+6 
           3038        2.304e+6 
         3038.3          2.5e+6 
         3038.6         2.77e+6 
         3038.9        3.056e+6 
         3039.2        3.307e+6 
         3039.5        3.482e+6 
         3039.8        3.565e+6 
         3040.1        3.553e+6 
         3040.4        3.461e+6 
         3040.7        3.317e+6 
           3041        3.152e+6 
         3041.3          3.0e+6 
         3041.6        2.892e+6 
         3041.9        2.855e+6 
         3042.2          2.9e+6 
         3042.5        3.025e+6 
         3042.8         3.21e+6 
         3043.1        3.421e+6 
         3043.4        3.624e+6 
         3043.7         3.79e+6 
           3044        3.906e+6 
         3044.3        3.969e+6 
         3044.6        3.984e+6 
         3044.9        3.957e+6 
         3045.2        3.889e+6 
         3045.5        3.772e+6 
         3045.8        3.601e+6 
         3046.1        3.373e+6 
         3046.4        3.105e+6 
         3046.7        2.826e+6 
           3047        2.587e+6 
         3047.3        2.433e+6 
         3047.6          2.4e+6 
         3047.9        2.497e+6 
         3048.2        2.702e+6 
         3048.5         2.97e+6 
         3048.8        3.243e+6 
         3049.1        3.469e+6 
         3049.4         3.62e+6 
         3049.7        3.696e+6 
           3050        3.729e+6 
         3050.3        3.769e+6 
         3050.6        3.866e+6 
         3050.9        4.045e+6 
         3051.2        4.297e+6 
         3051.5         4.58e+6 
         3051.8        4.827e+6 
         3052.1        4.978e+6 
         3052.4        4.992e+6 
         3052.7        4.862e+6 
           3053        4.619e+6 
         3053.3        4.318e+6 
         3053.6        4.023e+6 
         3053.9        3.791e+6 
         3054.2        3.657e+6 
         3054.5        3.629e+6 
         3054.8        3.683e+6 
         3055.1        3.774e+6 
         3055.4        3.845e+6 
         3055.7        3.847e+6 
           3056        3.746e+6 
         3056.3        3.536e+6 
         3056.6        3.239e+6 
         3056.9        2.899e+6 
         3057.2        2.563e+6 
         3057.5        2.274e+6 
         3057.8         2.06e+6 
         3058.1        1.934e+6 
         3058.4        1.897e+6 
         3058.7        1.953e+6 
           3059        2.105e+6 
         3059.3        2.354e+6 
         3059.6         2.69e+6 
         3059.9         3.09e+6 
         3060.2        3.513e+6 
         3060.5        3.911e+6 
         3060.8        4.237e+6 
         3061.1        4.459e+6 
         3061.4        4.561e+6 
         3061.7        4.545e+6 
           3062        4.425e+6 
         3062.3        4.224e+6 
         3062.6        3.968e+6 
         3062.9        3.686e+6 
         3063.2        3.411e+6 
         3063.5        3.174e+6 
         3063.8        2.996e+6 
         3064.1        2.888e+6 
         3064.4         2.84e+6 
         3064.7        2.828e+6 
           3065        2.817e+6 
         3065.3        2.775e+6 
         3065.6        2.683e+6 
         3065.9        2.545e+6 
         3066.2        2.381e+6 
         3066.5        2.228e+6 
         3066.8        2.126e+6 
         3067.1        2.108e+6 
         3067.4        2.196e+6 
         3067.7        2.388e+6 
           3068        2.672e+6 
         3068.3        3.012e+6 
         3068.6        3.365e+6 
         3068.9        3.689e+6 
         3069.2         3.95e+6 
         3069.5        4.128e+6 
         3069.8        4.227e+6 
         3070.1        4.261e+6 
         3070.4        4.248e+6 
         3070.7        4.207e+6 
           3071        4.145e+6 
         3071.3        4.066e+6 
         3071.6        3.975e+6 
         3071.9        3.884e+6 
         3072.2        3.811e+6 
         3072.5        3.776e+6 
         3072.8        3.784e+6 
         3073.1        3.828e+6 
         3073.4        3.881e+6 
         3073.7        3.912e+6 
           3074        3.894e+6 
         3074.3        3.822e+6 
         3074.6        3.709e+6 
         3074.9        3.593e+6 
         3075.2        3.517e+6 
         3075.5        3.518e+6 
         3075.8        3.607e+6 
         3076.1        3.765e+6 
         3076.4        3.945e+6 
         3076.7          4.1e+6 
           3077        4.187e+6 
         3077.3        4.192e+6 
         3077.6         4.13e+6 
         3077.9        4.036e+6 
         3078.2         3.95e+6 
         3078.5        3.906e+6 
         3078.8        3.916e+6 
         3079.1         3.97e+6 
         3079.4         4.04e+6 
         3079.7         4.09e+6 
           3080        4.089e+6 
         3080.3        4.023e+6 
         3080.6        3.894e+6 
         3080.9        3.721e+6 
         3081.2        3.528e+6 
         3081.5        3.347e+6 
         3081.8        3.205e+6 
         3082.1        3.121e+6 
         3082.4        3.109e+6 
         3082.7        3.173e+6 
           3083        3.313e+6 
         3083.3        3.527e+6 
         3083.6        3.804e+6 
         3083.9        4.124e+6 
         3084.2        4.461e+6 
         3084.5        4.777e+6 
         3084.8        5.033e+6 
         3085.1        5.196e+6 
         3085.4         5.24e+6 
         3085.7        5.152e+6 
           3086        4.937e+6 
         3086.3         4.62e+6 
         3086.6        4.243e+6 
         3086.9        3.861e+6 
         3087.2        3.524e+6 
         3087.5        3.273e+6 
         3087.8        3.123e+6 
         3088.1        3.063e+6 
         3088.4        3.062e+6 
         3088.7         3.08e+6 
           3089        3.079e+6 
         3089.3        3.041e+6 
         3089.6        2.969e+6 
         3089.9         2.88e+6 
         3090.2        2.792e+6 
         3090.5        2.722e+6 
         3090.8        2.675e+6 
         3091.1        2.645e+6 
         3091.4         2.62e+6 
         3091.7        2.583e+6 
           3092        2.529e+6 
         3092.3        2.462e+6 
         3092.6          2.4e+6 
         3092.9        2.371e+6 
         3093.2          2.4e+6 
         3093.5        2.493e+6 
         3093.8        2.641e+6 
         3094.1        2.814e+6 
         3094.4        2.975e+6 
         3094.7        3.088e+6 
           3095        3.127e+6 
         3095.3        3.084e+6 
         3095.6        2.969e+6 
         3095.9        2.813e+6 
         3096.2        2.655e+6 
         3096.5        2.534e+6 
         3096.8        2.475e+6 
         3097.1        2.484e+6 
         3097.4         2.54e+6 
         3097.7        2.604e+6 
           3098         2.63e+6 
         3098.3        2.584e+6 
         3098.6         2.45e+6 
         3098.9        2.238e+6 
         3099.2        1.981e+6 
         3099.5        1.717e+6 
         3099.8        1.484e+6 
         3100.1        1.313e+6 
         3100.4         1.22e+6 
         3100.7        1.215e+6 
           3101        1.301e+6 
         3101.3        1.476e+6 
         3101.6        1.735e+6 
         3101.9        2.067e+6 
         3102.2        2.447e+6 
         3102.5         2.84e+6 
         3102.8        3.205e+6 
         3103.1        3.504e+6 
         3103.4         3.71e+6 
         3103.7        3.812e+6 
           3104        3.816e+6 
         3104.3        3.744e+6 
         3104.6        3.631e+6 
         3104.9        3.517e+6 
         3105.2        3.438e+6 
         3105.5        3.425e+6 
         3105.8        3.489e+6 
         3106.1        3.628e+6 
         3106.4        3.821e+6 
         3106.7        4.042e+6 
           3107         4.26e+6 
         3107.3        4.451e+6 
         3107.6        4.599e+6 
         3107.9        4.694e+6 
         3108.2        4.735e+6 
         3108.5        4.725e+6 
         3108.8        4.673e+6 
         3109.1        4.591e+6 
         3109.4        4.499e+6 
         3109.7         4.42e+6 
           3110        4.373e+6 
         3110.3        4.376e+6 
         3110.6        4.431e+6 
         3110.9        4.528e+6 
         3111.2        4.647e+6 
         3111.5         4.76e+6 
         3111.8        4.842e+6 
         3112.1        4.873e+6 
         3112.4        4.841e+6 
         3112.7        4.744e+6 
           3113        4.593e+6 
         3113.3        4.414e+6 
         3113.6        4.238e+6 
         3113.9        4.102e+6 
         3114.2        4.029e+6 
         3114.5        4.032e+6 
         3114.8        4.097e+6 
         3115.1        4.197e+6 
         3115.4        4.292e+6 
         3115.7        4.342e+6 
           3116        4.319e+6 
         3116.3        4.213e+6 
         3116.6        4.036e+6 
         3116.9        3.811e+6 
         3117.2         3.57e+6 
         3117.5        3.343e+6 
         3117.8         3.15e+6 
         3118.1        3.001e+6 
         3118.4        2.898e+6 
         3118.7        2.834e+6 
           3119        2.803e+6 
         3119.3        2.802e+6 
         3119.6        2.832e+6 
         3119.9        2.892e+6 
         3120.2        2.977e+6 
         3120.5        3.071e+6 
         3120.8        3.153e+6 
         3121.1        3.206e+6 
         3121.4        3.222e+6 
         3121.7        3.209e+6 
           3122        3.187e+6 
         3122.3        3.182e+6 
         3122.6        3.212e+6 
         3122.9        3.279e+6 
         3123.2        3.371e+6 
         3123.5        3.466e+6 
         3123.8        3.535e+6 
         3124.1        3.558e+6 
         3124.4        3.534e+6 
         3124.7        3.479e+6 
           3125        3.427e+6 
         3125.3        3.414e+6 
         3125.6        3.467e+6 
         3125.9        3.594e+6 
         3126.2        3.778e+6 
         3126.5        3.984e+6 
         3126.8        4.168e+6 
         3127.1        4.295e+6 
         3127.4        4.342e+6 
         3127.7        4.314e+6 
           3128         4.23e+6 
         3128.3        4.123e+6 
         3128.6        4.022e+6 
         3128.9        3.941e+6 
         3129.2        3.879e+6 
         3129.5        3.824e+6 
         3129.8        3.759e+6 
         3130.1         3.68e+6 
         3130.4        3.591e+6 
         3130.7        3.498e+6 
           3131        3.413e+6 
         3131.3        3.341e+6 
         3131.6        3.281e+6 
         3131.9        3.229e+6 
         3132.2        3.183e+6 
         3132.5        3.138e+6 
         3132.8        3.091e+6 
         3133.1        3.044e+6 
         3133.4        3.007e+6 
         3133.7        2.997e+6 
           3134        3.032e+6 
         3134.3         3.12e+6 
         3134.6        3.255e+6 
         3134.9        3.417e+6 
         3135.2        3.573e+6 
         3135.5        3.698e+6 
         3135.8        3.779e+6 
         3136.1        3.826e+6 
         3136.4        3.858e+6 
         3136.7        3.895e+6 
           3137        3.945e+6 
         3137.3          4.0e+6 
         3137.6        4.043e+6 
         3137.9        4.062e+6 
         3138.2        4.052e+6 
         3138.5        4.019e+6 
         3138.8         3.98e+6 
         3139.1        3.955e+6 
         3139.4        3.959e+6 
         3139.7        4.001e+6 
           3140        4.083e+6 
         3140.3        4.191e+6 
         3140.6        4.304e+6 
         3140.9        4.392e+6 
         3141.2        4.427e+6 
         3141.5        4.384e+6 
         3141.8        4.249e+6 
         3142.1         4.02e+6 
         3142.4        3.709e+6 
         3142.7        3.338e+6 
           3143        2.936e+6 
         3143.3         2.54e+6 
         3143.6        2.186e+6 
         3143.9        1.908e+6 
         3144.2        1.733e+6 
         3144.5        1.673e+6 
         3144.8        1.726e+6 
         3145.1        1.873e+6 
         3145.4        2.082e+6 
         3145.7        2.317e+6 
           3146        2.541e+6 
         3146.3        2.731e+6 
         3146.6        2.879e+6 
         3146.9        2.996e+6 
         3147.2        3.104e+6 
         3147.5        3.226e+6 
         3147.8        3.373e+6 
         3148.1        3.547e+6 
         3148.4        3.732e+6 
         3148.7        3.908e+6 
           3149         4.06e+6 
         3149.3        4.182e+6 
         3149.6        4.277e+6 
         3149.9        4.356e+6 
         3150.2        4.423e+6 
         3150.5        4.475e+6 
         3150.8        4.505e+6 
         3151.1        4.504e+6 
         3151.4        4.476e+6 
         3151.7         4.43e+6 
           3152        4.385e+6 
         3152.3        4.353e+6 
         3152.6        4.339e+6 
         3152.9        4.334e+6 
         3153.2        4.321e+6 
         3153.5        4.282e+6 
         3153.8        4.209e+6 
         3154.1        4.106e+6 
         3154.4        3.986e+6 
         3154.7        3.868e+6 
           3155         3.76e+6 
         3155.3         3.66e+6 
         3155.6        3.559e+6 
         3155.9         3.44e+6 
         3156.2         3.29e+6 
         3156.5        3.105e+6 
         3156.8        2.889e+6 
         3157.1        2.658e+6 
         3157.4        2.432e+6 
         3157.7        2.235e+6 
           3158        2.083e+6 
         3158.3        1.987e+6 
         3158.6         1.95e+6 
         3158.9        1.966e+6 
         3159.2        2.016e+6 
         3159.5         2.08e+6 
         3159.8        2.131e+6 
         3160.1        2.156e+6 
         3160.4        2.151e+6 
         3160.7        2.126e+6 
           3161        2.103e+6 
         3161.3        2.106e+6 
         3161.6        2.156e+6 
         3161.9        2.262e+6 
         3162.2        2.423e+6 
         3162.5        2.622e+6 
         3162.8        2.832e+6 
         3163.1        3.021e+6 
         3163.4        3.162e+6 
         3163.7         3.24e+6 
           3164        3.256e+6 
         3164.3        3.227e+6 
         3164.6        3.182e+6 
         3164.9        3.149e+6 
         3165.2        3.149e+6 
         3165.5         3.19e+6 
         3165.8        3.269e+6 
         3166.1        3.372e+6 
         3166.4        3.477e+6 
         3166.7         3.56e+6 
           3167        3.599e+6 
         3167.3        3.581e+6 
         3167.6        3.509e+6 
         3167.9        3.398e+6 
         3168.2        3.282e+6 
         3168.5        3.198e+6 
         3168.8        3.178e+6 
         3169.1         3.24e+6 
         3169.4        3.382e+6 
         3169.7        3.585e+6 
           3170        3.817e+6 
         3170.3        4.047e+6 
         3170.6        4.253e+6 
         3170.9        4.425e+6 
         3171.2        4.563e+6 
         3171.5        4.672e+6 
         3171.8        4.755e+6 
         3172.1        4.807e+6 
         3172.4         4.82e+6 
         3172.7        4.786e+6 
           3173        4.703e+6 
         3173.3        4.579e+6 
         3173.6        4.431e+6 
         3173.9        4.281e+6 
         3174.2        4.154e+6 
         3174.5        4.071e+6 
         3174.8        4.054e+6 
         3175.1        4.111e+6 
         3175.4        4.234e+6 
         3175.7        4.397e+6 
           3176        4.562e+6 
         3176.3        4.679e+6 
         3176.6        4.709e+6 
         3176.9        4.631e+6 
         3177.2        4.445e+6 
         3177.5         4.17e+6 
         3177.8        3.839e+6 
         3178.1        3.485e+6 
