# Granada HRES Library
# atmosphere = Spectrum  (atmosphere model used)
# feh = 3  (value for [Fe/H] for the model.)
# logg = 0 log(cm/s2) (value for Log(G) for the model.)
# teff = 5250 K (value for the effective temperature for the model. Temperatures are given in K)
#
# column 1: WAVELENGTH (ANGSTROM), Wavelength in Angstrom
# column 2: FLUX (ERG/CM2/S/A), Flux in erg/cm2/s/A
         3000.2           71620 
         3000.5           71250 
         3000.8           71740 
         3001.1           73200 
         3001.4           75570 
         3001.7           79290 
           3002           84860 
         3002.3           93340 
         3002.6          106000 
         3002.9          124100 
         3003.2          148900 
         3003.5          180500 
         3003.8          218500 
         3004.1          260600 
         3004.4          303800 
         3004.7          344100 
           3005          377300 
         3005.3          399500 
         3005.6          407900 
         3005.9          401500 
         3006.2          381300 
         3006.5          349900 
         3006.8          311800 
         3007.1          272100 
         3007.4          236100 
         3007.7          208000 
           3008          190900 
         3008.3          185900 
         3008.6          193200 
         3008.9          211400 
         3009.2          237900 
         3009.5          269800 
         3009.8          303200 
         3010.1          334400 
         3010.4          360000 
         3010.7          377900 
           3011          387400 
         3011.3          389800 
         3011.6          387600 
         3011.9          383800 
         3012.2          380700 
         3012.5          379900 
         3012.8          381400 
         3013.1          384400 
         3013.4          387500 
         3013.7          389400 
           3014          389100 
         3014.3          386200 
         3014.6          380300 
         3014.9          371900 
         3015.2          361200 
         3015.5          348900 
         3015.8          335100 
         3016.1          319800 
         3016.4          302600 
         3016.7          283300 
           3017          261600 
         3017.3          238100 
         3017.6          213300 
         3017.9          188100 
         3018.2          163300 
         3018.5          139400 
         3018.8          117000 
         3019.1           96470 
         3019.4           78490 
         3019.7           63770 
           3020           53140 
         3020.3           47480 
         3020.6           47620 
         3020.9           54260 
         3021.2           67420 
         3021.5           86520 
         3021.8          110400 
         3022.1          137000 
         3022.4          164200 
         3022.7          189400 
           3023          210800 
         3023.3          226900 
         3023.6          237100 
         3023.9          241500 
         3024.2          240500 
         3024.5          235700 
         3024.8          229000 
         3025.1          223400 
         3025.4          222300 
         3025.7          229400 
           3026          247300 
         3026.3          276600 
         3026.6          315900 
         3026.9          361200 
         3027.2          407500 
         3027.5          449500 
         3027.8          482200 
         3028.1          502600 
         3028.4          509500 
         3028.7          503600 
           3029          487500 
         3029.3          464700 
         3029.6          439200 
         3029.9          414000 
         3030.2          391900 
         3030.5          374800 
         3030.8          363900 
         3031.1          360200 
         3031.4          364300 
         3031.7          375500 
           3032          392100 
         3032.3          411600 
         3032.6          431400 
         3032.9          449400 
         3033.2          464800 
         3033.5          477400 
         3033.8          487900 
         3034.1          496700 
         3034.4          503300 
         3034.7          506100 
           3035          502100 
         3035.3          488700 
         3035.6          463600 
         3035.9          426900 
         3036.2          381200 
         3036.5          331100 
         3036.8          282900 
         3037.1          242800 
         3037.4          215600 
         3037.7          203600 
           3038          206900 
         3038.3          223200 
         3038.6          248600 
         3038.9          278300 
         3039.2          307800 
         3039.5          333500 
         3039.8          352600 
         3040.1          363700 
         3040.4          366600 
         3040.7          362500 
           3041          353400 
         3041.3          342100 
         3041.6          331800 
         3041.9          325300 
         3042.2          324800 
         3042.5          330400 
         3042.8          341000 
         3043.1          353900 
         3043.4          366200 
         3043.7          375600 
           3044          380700 
         3044.3          381400 
         3044.6          378200 
         3044.9          371600 
         3045.2          361700 
         3045.5          348100 
         3045.8          330200 
         3046.1          307600 
         3046.4          281400 
         3046.7          254100 
           3047          229600 
         3047.3          212000 
         3047.6          205000 
         3047.9          210300 
         3048.2          227100 
         3048.5          252500 
         3048.8          282400 
         3049.1          312500 
         3049.4          339500 
         3049.7          362600 
           3050          383000 
         3050.3          403900 
         3050.6          428100 
         3050.9          457300 
         3051.2          490300 
         3051.5          523000 
         3051.8          549700 
         3052.1          564900 
         3052.4          564400 
         3052.7          547900 
           3053          518300 
         3053.3          481200 
         3053.6          443400 
         3053.9          411100 
         3054.2          388500 
         3054.5          376800 
         3054.8          374200 
         3055.1          376400 
         3055.4          378200 
         3055.7          374400 
           3056          361800 
         3056.3          339200 
         3056.6          308100 
         3056.9          271900 
         3057.2          235000 
         3057.5          201500 
         3057.8          174900 
         3058.1          157600 
         3058.4          151100 
         3058.7          156700 
           3059          174500 
         3059.3          204600 
         3059.6          245500 
         3059.9          294400 
         3060.2          347400 
         3060.5          399100 
         3060.8          444700 
         3061.1          480100 
         3061.4          502300 
         3061.7          510700 
           3062          506000 
         3062.3          490400 
         3062.6          467000 
         3062.9          439700 
         3063.2          412100 
         3063.5          387100 
         3063.8          366400 
         3064.1          350000 
         3064.4          336600 
         3064.7          324100 
           3065          310000 
         3065.3          293300 
         3065.6          274600 
         3065.9          255700 
         3066.2          240200 
         3066.5          231900 
         3066.8          234200 
         3067.1          249600 
         3067.4          278200 
         3067.7          318600 
           3068          367300 
         3068.3          419300 
         3068.6          469100 
         3068.9          510900 
         3069.2          540300 
         3069.5          554600 
         3069.8          553200 
         3070.1          537600 
         3070.4          510500 
         3070.7          475500 
           3071          436100 
         3071.3          395900 
         3071.6          358000 
         3071.9          325500 
         3072.2          301000 
         3072.5          286000 
         3072.8          280600 
         3073.1          282700 
         3073.4          289100 
         3073.7          296200 
           3074          301200 
         3074.3          303000 
         3074.6          303200 
         3074.9          304500 
         3075.2          310700 
         3075.5          323600 
         3075.8          343000 
         3076.1          365500 
         3076.4          386100 
         3076.7          399600 
           3077          402400 
         3077.3          394100 
         3077.6          377400 
         3077.9          357500 
         3078.2          340800 
         3078.5          332400 
         3078.8          335600 
         3079.1          350800 
         3079.4          374900 
         3079.7          403400 
           3080          430600 
         3080.3          451900 
         3080.6          464500 
         3080.9          467600 
         3081.2          462900 
         3081.5          453100 
         3081.8          442500 
         3082.1          434700 
         3082.4          432900 
         3082.7          439500 
           3083          455800 
         3083.3          482200 
         3083.6          518100 
         3083.9          561000 
         3084.2          607300 
         3084.5          652000 
         3084.8          689100 
         3085.1          712700 
         3085.4          718100 
         3085.7          702500 
           3086          666200 
         3086.3          612400 
         3086.6          547000 
         3086.9          477600 
         3087.2          411900 
         3087.5          356400 
         3087.8          315200 
         3088.1          290100 
         3088.4          280300 
         3088.7          283400 
           3089          295800 
         3089.3          314000 
         3089.6          334900 
         3089.9          356000 
         3090.2          375700 
         3090.5          392600 
         3090.8          405700 
         3091.1          413900 
         3091.4          416300 
         3091.7          412600 
           3092          403300 
         3092.3          390300 
         3092.6          376800 
         3092.9          367200 
         3093.2          364800 
         3093.5          371300 
         3093.8          385900 
         3094.1          405000 
         3094.4          423900 
         3094.7          437700 
           3095          443300 
         3095.3          439800 
         3095.6          428900 
         3095.9          414000 
         3096.2          399300 
         3096.5          388600 
         3096.8          383500 
         3097.1          383300 
         3097.4          385200 
         3097.7          384700 
           3098          377500 
         3098.3          360600 
         3098.6          333500 
         3098.9          298400 
         3099.2          259100 
         3099.5          220300 
         3099.8          186600 
         3100.1          161300 
         3100.4          146200 
         3100.7          142300 
           3101          149500 
         3101.3          167500 
         3101.6          195200 
         3101.9          230900 
         3102.2          272100 
         3102.5          315000 
         3102.8          355800 
         3103.1          390400 
         3103.4          415900 
         3103.7          430600 
           3104          435100 
         3104.3          431600 
         3104.6          423800 
         3104.9          416000 
         3105.2          412800 
         3105.5          417700 
         3105.8          432600 
         3106.1          457600 
         3106.4          490400 
         3106.7          527800 
           3107          565400 
         3107.3          599300 
         3107.6          626400 
         3107.9          644300 
         3108.2          651400 
         3108.5          647600 
         3108.8          633900 
         3109.1          611900 
         3109.4          585300 
         3109.7          558800 
           3110          537800 
         3110.3          526900 
         3110.6          529100 
         3110.9          544400 
         3111.2          569800 
         3111.5          600400 
         3111.8          629700 
         3112.1          652200 
         3112.4          664100 
         3112.7          664000 
           3113          652700 
         3113.3          633400 
         3113.6          610200 
         3113.9          587100 
         3114.2          567400 
         3114.5          552600 
         3114.8          543100 
         3115.1          537500 
         3115.4          533700 
         3115.7          528800 
           3116          520500 
         3116.3          507200 
         3116.6          488000 
         3116.9          463800 
         3117.2          436100 
         3117.5          407200 
         3117.8          379600 
         3118.1          355500 
         3118.4          336100 
         3118.7          322400 
           3119          314200 
         3119.3          311300 
         3119.6          313400 
         3119.9          320500 
         3120.2          332000 
         3120.5          347200 
         3120.8          364600 
         3121.1          382600 
         3121.4          400200 
         3121.7          416600 
           3122          431900 
         3122.3          446300 
         3122.6          459800 
         3122.9          471700 
         3123.2          480600 
         3123.5          484600 
         3123.8          482000 
         3124.1          472500 
         3124.4          458100 
         3124.7          442600 
           3125          431600 
         3125.3          430500 
         3125.6          443100 
         3125.9          469800 
         3126.2          507400 
         3126.5          549300 
         3126.8          588000 
         3127.1          616500 
         3127.4          630000 
         3127.7          627300 
           3128          610400 
         3128.3          583300 
         3128.6          551000 
         3128.9          517500 
         3129.2          485400 
         3129.5          455700 
         3129.8          428700 
         3130.1          404400 
         3130.4          383000 
         3130.7          365000 
           3131          350700 
         3131.3          339800 
         3131.6          331900 
         3131.9          326100 
         3132.2          321900 
         3132.5          319500 
         3132.8          319200 
         3133.1          322400 
         3133.4          330600 
         3133.7          344900 
           3134          366300 
         3134.3          394000 
         3134.6          426100 
         3134.9          459600 
         3135.2          491200 
         3135.5          518300 
         3135.8          539700 
         3136.1          555800 
         3136.4          568300 
         3136.7          579500 
           3137          590900 
         3137.3          602900 
         3137.6          614600 
         3137.9          624800 
         3138.2          632600 
         3138.5          637600 
         3138.8          640700 
         3139.1          643500 
         3139.4          647900 
         3139.7          655400 
           3140          666000 
         3140.3          678500 
         3140.6          689600 
         3140.9          694800 
         3141.2          689800 
         3141.5          671800 
         3141.8          640100 
         3142.1          596400 
         3142.4          544200 
         3142.7          487600 
           3143          431300 
         3143.3          379300 
         3143.6          335200 
         3143.9          301600 
         3144.2          280100 
         3144.5          271500 
         3144.8          275100 
         3145.1          289100 
         3145.4          310100 
         3145.7          334700 
           3146          359300 
         3146.3          382000 
         3146.6          402300 
         3146.9          421800 
         3147.2          442600 
         3147.5          467300 
         3147.8          497600 
         3148.1          533000 
         3148.4          571600 
         3148.7          611100 
           3149          648600 
         3149.3          682000 
         3149.6          710000 
         3149.9          731700 
         3150.2          746300 
         3150.5          753300 
         3150.8          752500 
         3151.1          744900 
         3151.4          732400 
         3151.7          717700 
           3152          703500 
         3152.3          691600 
         3152.6          681700 
         3152.9          672600 
         3153.2          661800 
         3153.5          647600 
         3153.8          629200 
         3154.1          607700 
         3154.4          585600 
         3154.7          565600 
           3155          550100 
         3155.3          539900 
         3155.6          533900 
         3155.9          530200 
         3156.2          525200 
         3156.5          515800 
         3156.8          499800 
         3157.1          476500 
         3157.4          447500 
         3157.7          415500 
           3158          384300 
         3158.3          357300 
         3158.6          336600 
         3158.9          322700 
         3159.2          314600 
         3159.5          309600 
         3159.8          304300 
         3160.1          296000 
         3160.4          283900 
         3160.7          269000 
           3161          254700 
         3161.3          245000 
         3161.6          244400 
         3161.9          256200 
         3162.2          281200 
         3162.5          318000 
         3162.8          362500 
         3163.1          408900 
         3163.4          451100 
         3163.7          483900 
           3164          504600 
         3164.3          513600 
         3164.6          513300 
         3164.9          507900 
         3165.2          501500 
         3165.5          496800 
         3165.8          494500 
         3166.1          493700 
         3166.4          491900 
         3166.7          486400 
           3167          475500 
         3167.3          459000 
         3167.6          439000 
         3167.9          419400 
         3168.2          405500 
         3168.5          401900 
         3168.8          411600 
         3169.1          435100 
         3169.4          470400 
         3169.7          513600 
           3170          561000 
         3170.3          608300 
         3170.6          653200 
         3170.9          694100 
         3171.2          730600 
         3171.5          762500 
         3171.8          789100 
         3172.1          809200 
         3172.4          821300 
         3172.7          824200 
           3173          818100 
         3173.3          804200 
         3173.6          785500 
         3173.9          765500 
         3174.2          748300 
         3174.5          737500 
         3174.8          735000 
         3175.1          741100 
         3175.4          753700 
         3175.7          768200 
           3176          778600 
         3176.3          779300 
         3176.6          765800 
         3176.9          736400 
         3177.2          692800 
         3177.5          638200 
         3177.8          578200 
         3178.1          517900 
