# Granada HRES Library
# atmosphere = Spectrum  (atmosphere model used)
# feh = 3  (value for [Fe/H] for the model.)
# logg = 1.5 log(cm/s2) (value for Log(G) for the model.)
# teff = 5250 K (value for the effective temperature for the model. Temperatures are given in K)
#
# column 1: WAVELENGTH (ANGSTROM), Wavelength in Angstrom
# column 2: FLUX (ERG/CM2/S/A), Flux in erg/cm2/s/A
         3000.2           91270 
         3000.5           91980 
         3000.8           94050 
         3001.1           97850 
         3001.4          103400 
         3001.7          111900 
           3002          124500 
         3002.3          143500 
         3002.6          171600 
         3002.9          212000 
         3003.2          266700 
         3003.5          336700 
         3003.8          420100 
         3004.1          512300 
         3004.4          605800 
         3004.7          691500 
           3005          759600 
         3005.3          801600 
         3005.6          812000 
         3005.9          789200 
         3006.2          736500 
         3006.5          661300 
         3006.8          573800 
         3007.1          485700 
         3007.4          407900 
         3007.7          348700 
           3008          313600 
         3008.3          304700 
         3008.6          321500 
         3008.9          361000 
         3009.2          418400 
         3009.5          486900 
         3009.8          558400 
         3010.1          624400 
         3010.4          677200 
         3010.7          712200 
           3011          728000 
         3011.3          728200 
         3011.6          719000 
         3011.9          707600 
         3012.2          699600 
         3012.5          697900 
         3012.8          702000 
         3013.1          709300 
         3013.4          716300 
         3013.7          720200 
           3014          718800 
         3014.3          711700 
         3014.6          699000 
         3014.9          681500 
         3015.2          659900 
         3015.5          635200 
         3015.8          607300 
         3016.1          575700 
         3016.4          539700 
         3016.7          498600 
           3017          452700 
         3017.3          403000 
         3017.6          351600 
         3017.9          300600 
         3018.2          252300 
         3018.5          207700 
         3018.8          168200 
         3019.1          134000 
         3019.4          105600 
         3019.7           83570 
           3020           68310 
         3020.3           60670 
         3020.6           61460 
         3020.9           71720 
         3021.2           91630 
         3021.5          120800 
         3021.8          157700 
         3022.1          200000 
         3022.4          244300 
         3022.7          286700 
           3023          323800 
         3023.3          353000 
         3023.6          372600 
         3023.9          382400 
         3024.2          383100 
         3024.5          377400 
         3024.8          369200 
         3025.1          364300 
         3025.4          369400 
         3025.7          391500 
           3026          435600 
         3026.3          503300 
         3026.6          591300 
         3026.9          692300 
         3027.2          795500 
         3027.5          889800 
         3027.8          964700 
         3028.1        1.013e+6 
         3028.4        1.032e+6 
         3028.7        1.021e+6 
           3029          987500 
         3029.3          937500 
         3029.6          879900 
         3029.9          822500 
         3030.2          772300 
         3030.5          734500 
         3030.8          713400 
         3031.1          712100 
         3031.4          732000 
         3031.7          771000 
           3032          824400 
         3032.3          884800 
         3032.6          944400 
         3032.9          997100 
         3033.2         1.04e+6 
         3033.5        1.071e+6 
         3033.8        1.092e+6 
         3034.1        1.104e+6 
         3034.4        1.107e+6 
         3034.7        1.098e+6 
           3035        1.073e+6 
         3035.3        1.027e+6 
         3035.6          957100 
         3035.9          864900 
         3036.2          756700 
         3036.5          642800 
         3036.8          535900 
         3037.1          448400 
         3037.4          389400 
         3037.7          363000 
           3038          368700 
         3038.3          401100 
         3038.6          451600 
         3038.9          510200 
         3039.2          567400 
         3039.5          615600 
         3039.8          649100 
         3040.1          665700 
         3040.4          665900 
         3040.7          653000 
           3041          631800 
         3041.3          608500 
         3041.6          590000 
         3041.9          581800 
         3042.2          587600 
         3042.5          607600 
         3042.8          638300 
         3043.1          673600 
         3043.4          707100 
         3043.7          732800 
           3044          747300 
         3044.3          749500 
         3044.6          740300 
         3044.9          720800 
         3045.2          692200 
         3045.5          655000 
         3045.8          609700 
         3046.1          556900 
         3046.4          499900 
         3046.7          443700 
           3047          395500 
         3047.3          362700 
         3047.6          351500 
         3047.9          364300 
         3048.2          398900 
         3048.5          449200 
         3048.8          506800 
         3049.1          562900 
         3049.4          611400 
         3049.7          651500 
           3050          687000 
         3050.3          725400 
         3050.6          774000 
         3050.9          836800 
         3051.2          911100 
         3051.5          987500 
         3051.8        1.053e+6 
         3052.1        1.093e+6 
         3052.4        1.099e+6 
         3052.7        1.069e+6 
           3053        1.007e+6 
         3053.3          927300 
         3053.6          844500 
         3053.9          773200 
         3054.2          723300 
         3054.5          697800 
         3054.8          692900 
         3055.1          699500 
         3055.4          705500 
         3055.7          699800 
           3056          674900 
         3056.3          628200 
         3056.6          563100 
         3056.9          487100 
         3057.2          409400 
         3057.5          339200 
         3057.8          283700 
         3058.1          248100 
         3058.4          235200 
         3058.7          247400 
           3059          285000 
         3059.3          347800 
         3059.6          432900 
         3059.9          535200 
         3060.2          646700 
         3060.5          757000 
         3060.8          855700 
         3061.1          933300 
         3061.4          982900 
         3061.7        1.001e+6 
           3062          989300 
         3062.3          950500 
         3062.6          891700 
         3062.9          821800 
         3063.2          749900 
         3063.5          684400 
         3063.8          631300 
         3064.1          592900 
         3064.4          567600 
         3064.7          551300 
           3065          537000 
         3065.3          519800 
         3065.6          496500 
         3065.9          468400 
         3066.2          440300 
         3066.5          419700 
         3066.8          415300 
         3067.1          434900 
         3067.4          481600 
         3067.7          555400 
           3068          650600 
         3068.3          757500 
         3068.6          864400 
         3068.9          959100 
         3069.2        1.032e+6 
         3069.5        1.076e+6 
         3069.8        1.092e+6 
         3070.1        1.081e+6 
         3070.4        1.051e+6 
         3070.7        1.006e+6 
           3071          953300 
         3071.3          896700 
         3071.6          841200 
         3071.9          791900 
         3072.2          753600 
         3072.5          729500 
         3072.8          720700 
         3073.1          723300 
         3073.4          731500 
         3073.7          738400 
           3074          738500 
         3074.3          730800 
         3074.6          718800 
         3074.9          709600 
         3075.2          711700 
         3075.5          730400 
         3075.8          766100 
         3076.1          812800 
         3076.4          860400 
         3076.7          897300 
           3077          915200 
         3077.3          911200 
         3077.6          888700 
         3077.9          856600 
         3078.2          825600 
         3078.5          805400 
         3078.8          801900 
         3079.1          815800 
         3079.4          841800 
         3079.7          871700 
           3080          896700 
         3080.3          909600 
         3080.6          906900 
         3080.9          889100 
         3081.2          860300 
         3081.5          826700 
         3081.8          796300 
         3082.1          776100 
         3082.4          771500 
         3082.7          786800 
           3083          824800 
         3083.3          886400 
         3083.6          970100 
         3083.9        1.072e+6 
         3084.2        1.183e+6 
         3084.5        1.294e+6 
         3084.8        1.391e+6 
         3085.1        1.461e+6 
         3085.4        1.493e+6 
         3085.7         1.48e+6 
           3086        1.421e+6 
         3086.3        1.323e+6 
         3086.6        1.198e+6 
         3086.9        1.063e+6 
         3087.2          934100 
         3087.5          825500 
         3087.8          745300 
         3088.1          695200 
         3088.4          671200 
         3088.7          665700 
           3089          670100 
         3089.3          677700 
         3089.6          684200 
         3089.9          688500 
         3090.2          691500 
         3090.5          694100 
         3090.8          696800 
         3091.1          698300 
         3091.4          696400 
         3091.7          688700 
           3092          674300 
         3092.3          654500 
         3092.6          634000 
         3092.9          619500 
         3093.2          617000 
         3093.5          629800 
         3093.8          656200 
         3094.1          690300 
         3094.4          723400 
         3094.7          746500 
           3095          754000 
         3095.3          744500 
         3095.6          721600 
         3095.9          692400 
         3096.2          665200 
         3096.5          646900 
         3096.8          639900 
         3097.1          642000 
         3097.4          646700 
         3097.7          645200 
           3098          629500 
         3098.3          594500 
         3098.6          540600 
         3098.9          472700 
         3099.2          398900 
         3099.5          328100 
         3099.8          268500 
         3100.1          225800 
         3100.4          203600 
         3100.7          203500 
           3101          225900 
         3101.3          270300 
         3101.6          335000 
         3101.9          416000 
         3102.2          507800 
         3102.5          602200 
         3102.8          690600 
         3103.1          764800 
         3103.4          819500 
         3103.7          851700 
           3104          863200 
         3104.3          859000 
         3104.6          846700 
         3104.9          834600 
         3105.2          831400 
         3105.5          843500 
         3105.8          874500 
         3106.1          923700 
         3106.4          987000 
         3106.7        1.058e+6 
           3107        1.129e+6 
         3107.3        1.193e+6 
         3107.6        1.245e+6 
         3107.9        1.281e+6 
         3108.2        1.297e+6 
         3108.5        1.295e+6 
         3108.8        1.276e+6 
         3109.1        1.242e+6 
         3109.4          1.2e+6 
         3109.7         1.16e+6 
           3110        1.131e+6 
         3110.3         1.12e+6 
         3110.6        1.132e+6 
         3110.9        1.164e+6 
         3111.2         1.21e+6 
         3111.5        1.257e+6 
         3111.8        1.295e+6 
         3112.1        1.314e+6 
         3112.4        1.308e+6 
         3112.7        1.278e+6 
           3113        1.229e+6 
         3113.3         1.17e+6 
         3113.6        1.111e+6 
         3113.9        1.062e+6 
         3114.2        1.027e+6 
         3114.5        1.008e+6 
         3114.8        1.002e+6 
         3115.1        1.003e+6 
         3115.4        1.004e+6 
         3115.7          998700 
           3116          983000 
         3116.3          955000 
         3116.6          915100 
         3116.9          866800 
         3117.2          813600 
         3117.5          759700 
         3117.8          709400 
         3118.1          665900 
         3118.4          631400 
         3118.7          607400 
           3119          594600 
         3119.3          593300 
         3119.6          603500 
         3119.9          624600 
         3120.2          653600 
         3120.5          686600 
         3120.8          717700 
         3121.1          741800 
         3121.4          756400 
         3121.7          762300 
           3122          763200 
         3122.3          764700 
         3122.6          771400 
         3122.9          785400 
         3123.2          805800 
         3123.5          828300 
         3123.8          846700 
         3124.1          856600 
         3124.4          856500 
         3124.7          850200 
           3125          844500 
         3125.3          849000 
         3125.6          870800 
         3125.9          912600 
         3126.2          970700 
         3126.5        1.036e+6 
         3126.8        1.096e+6 
         3127.1        1.141e+6 
         3127.4        1.162e+6 
         3127.7        1.157e+6 
           3128         1.13e+6 
         3128.3        1.087e+6 
         3128.6        1.037e+6 
         3128.9          986000 
         3129.2          937500 
         3129.5          892600 
         3129.8          851100 
         3130.1          812700 
         3130.4          777600 
         3130.7          746900 
           3131          720700 
         3131.3          698900 
         3131.6          680100 
         3131.9          662600 
         3132.2          644700 
         3132.5          627200 
         3132.8          611300 
         3133.1          600600 
         3133.4          599700 
         3133.7          612300 
           3134          641300 
         3134.3          686100 
         3134.6          742500 
         3134.9          803900 
         3135.2          862300 
         3135.5          911100 
         3135.8          946900 
         3136.1          970200 
         3136.4          984300 
         3136.7          993700 
           3137        1.002e+6 
         3137.3        1.011e+6 
         3137.6         1.02e+6 
         3137.9         1.03e+6 
         3138.2        1.038e+6 
         3138.5        1.045e+6 
         3138.8        1.054e+6 
         3139.1        1.066e+6 
         3139.4        1.085e+6 
         3139.7         1.11e+6 
           3140        1.143e+6 
         3140.3        1.178e+6 
         3140.6         1.21e+6 
         3140.9        1.231e+6 
         3141.2        1.233e+6 
         3141.5        1.211e+6 
         3141.8        1.162e+6 
         3142.1        1.088e+6 
         3142.4          995000 
         3142.7          888900 
           3143          778200 
         3143.3          671700 
         3143.6          577100 
         3143.9          501700 
         3144.2          449800 
         3144.5          423700 
         3144.8          422300 
         3145.1          441400 
         3145.4          474500 
         3145.7          514600 
           3146          555500 
         3146.3          594600 
         3146.6          632400 
         3146.9          672600 
         3147.2          719400 
         3147.5          776300 
         3147.8          844700 
         3148.1          921500 
         3148.4        1.002e+6 
         3148.7         1.08e+6 
           3149        1.151e+6 
         3149.3        1.212e+6 
         3149.6        1.263e+6 
         3149.9        1.303e+6 
         3150.2        1.333e+6 
         3150.5        1.352e+6 
         3150.8         1.36e+6 
         3151.1        1.356e+6 
         3151.4        1.343e+6 
         3151.7        1.323e+6 
           3152        1.303e+6 
         3152.3        1.284e+6 
         3152.6        1.268e+6 
         3152.9        1.254e+6 
         3153.2        1.237e+6 
         3153.5        1.215e+6 
         3153.8        1.185e+6 
         3154.1        1.147e+6 
         3154.4        1.106e+6 
         3154.7        1.065e+6 
           3155        1.026e+6 
         3155.3          990900 
         3155.6          957700 
         3155.9          923800 
         3156.2          885000 
         3156.5          838700 
         3156.8          784600 
         3157.1          724500 
         3157.4          662800 
         3157.7          604600 
           3158          554800 
         3158.3          517300 
         3158.6          492900 
         3158.9          480200 
         3159.2          476300 
         3159.5          476300 
         3159.8          475700 
         3160.1          470700 
         3160.4          461300 
         3160.7          449800 
           3161          441300 
         3161.3          441100 
         3161.6          454700 
         3161.9          484900 
         3162.2          531000 
         3162.5          588800 
         3162.8          651600 
         3163.1          711500 
         3163.4          760600 
         3163.7          794200 
           3164          811600 
         3164.3          816200 
         3164.6          814100 
         3164.9          812400 
         3165.2          816700 
         3165.5          829400 
         3165.8          849900 
         3166.1          873500 
         3166.4          894500 
         3166.7          906000 
           3167          903400 
         3167.3          885800 
         3167.6          856100 
         3167.9          822100 
         3168.2          794000 
         3168.5          782200 
         3168.8          794100 
         3169.1          832600 
         3169.4          894800 
         3169.7          974000 
           3170        1.062e+6 
         3170.3        1.149e+6 
         3170.6        1.229e+6 
         3170.9        1.299e+6 
         3171.2        1.358e+6 
         3171.5        1.408e+6 
         3171.8        1.447e+6 
         3172.1        1.474e+6 
         3172.4        1.487e+6 
         3172.7        1.484e+6 
           3173        1.464e+6 
         3173.3        1.429e+6 
         3173.6        1.386e+6 
         3173.9        1.341e+6 
         3174.2        1.304e+6 
         3174.5        1.283e+6 
         3174.8        1.283e+6 
         3175.1        1.304e+6 
         3175.4        1.343e+6 
         3175.7        1.388e+6 
           3176        1.427e+6 
         3176.3        1.448e+6 
         3176.6        1.439e+6 
         3176.9        1.398e+6 
         3177.2        1.325e+6 
         3177.5        1.228e+6 
         3177.8        1.117e+6 
         3178.1        1.003e+6 
