# Granada HRES Library
# atmosphere = Spectrum  (atmosphere model used)
# feh = 0  (value for [Fe/H] for the model.)
# logg = 1.5 log(cm/s2) (value for Log(G) for the model.)
# teff = 5750 K (value for the effective temperature for the model. Temperatures are given in K)
#
# column 1: WAVELENGTH (ANGSTROM), Wavelength in Angstrom
# column 2: FLUX (ERG/CM2/S/A), Flux in erg/cm2/s/A
         3000.2        1.274e+6 
         3000.5        1.254e+6 
         3000.8        1.237e+6 
         3001.1         1.22e+6 
         3001.4          1.2e+6 
         3001.7        1.177e+6 
           3002        1.155e+6 
         3002.3        1.142e+6 
         3002.6        1.151e+6 
         3002.9        1.195e+6 
         3003.2        1.283e+6 
         3003.5        1.415e+6 
         3003.8        1.587e+6 
         3004.1        1.785e+6 
         3004.4        1.993e+6 
         3004.7        2.189e+6 
           3005        2.353e+6 
         3005.3        2.469e+6 
         3005.6        2.526e+6 
         3005.9         2.52e+6 
         3006.2        2.458e+6 
         3006.5        2.351e+6 
         3006.8        2.216e+6 
         3007.1        2.073e+6 
         3007.4         1.94e+6 
         3007.7        1.831e+6 
           3008         1.76e+6 
         3008.3        1.737e+6 
         3008.6        1.764e+6 
         3008.9        1.842e+6 
         3009.2        1.961e+6 
         3009.5        2.105e+6 
         3009.8        2.253e+6 
         3010.1        2.384e+6 
         3010.4         2.48e+6 
         3010.7         2.53e+6 
           3011        2.535e+6 
         3011.3        2.502e+6 
         3011.6        2.449e+6 
         3011.9         2.39e+6 
         3012.2        2.338e+6 
         3012.5        2.298e+6 
         3012.8        2.271e+6 
         3013.1        2.255e+6 
         3013.4        2.245e+6 
         3013.7        2.239e+6 
           3014        2.235e+6 
         3014.3        2.228e+6 
         3014.6        2.218e+6 
         3014.9        2.206e+6 
         3015.2        2.193e+6 
         3015.5        2.182e+6 
         3015.8        2.176e+6 
         3016.1        2.171e+6 
         3016.4        2.163e+6 
         3016.7        2.145e+6 
           3017         2.11e+6 
         3017.3        2.057e+6 
         3017.6        1.985e+6 
         3017.9        1.896e+6 
         3018.2        1.793e+6 
         3018.5        1.676e+6 
         3018.8        1.546e+6 
         3019.1        1.406e+6 
         3019.4        1.262e+6 
         3019.7        1.124e+6 
           3020         1.01e+6 
         3020.3          939600 
         3020.6          932300 
         3020.9        1.002e+6 
         3021.2        1.149e+6 
         3021.5        1.362e+6 
         3021.8        1.612e+6 
         3022.1        1.867e+6 
         3022.4        2.092e+6 
         3022.7        2.264e+6 
           3023        2.369e+6 
         3023.3        2.408e+6 
         3023.6        2.395e+6 
         3023.9        2.342e+6 
         3024.2        2.263e+6 
         3024.5        2.166e+6 
         3024.8        2.061e+6 
         3025.1         1.96e+6 
         3025.4        1.881e+6 
         3025.7        1.842e+6 
           3026        1.861e+6 
         3026.3        1.943e+6 
         3026.6        2.078e+6 
         3026.9        2.247e+6 
         3027.2        2.424e+6 
         3027.5        2.581e+6 
         3027.8        2.696e+6 
         3028.1        2.757e+6 
         3028.4        2.759e+6 
         3028.7        2.706e+6 
           3029         2.61e+6 
         3029.3        2.486e+6 
         3029.6        2.352e+6 
         3029.9        2.222e+6 
         3030.2        2.108e+6 
         3030.5        2.019e+6 
         3030.8        1.962e+6 
         3031.1        1.945e+6 
         3031.4         1.97e+6 
         3031.7        2.034e+6 
           3032        2.123e+6 
         3032.3         2.22e+6 
         3032.6        2.309e+6 
         3032.9        2.377e+6 
         3033.2        2.423e+6 
         3033.5        2.454e+6 
         3033.8         2.48e+6 
         3034.1         2.51e+6 
         3034.4        2.546e+6 
         3034.7        2.584e+6 
           3035        2.609e+6 
         3035.3        2.602e+6 
         3035.6        2.547e+6 
         3035.9        2.436e+6 
         3036.2        2.273e+6 
         3036.5        2.076e+6 
         3036.8        1.873e+6 
         3037.1        1.696e+6 
         3037.4        1.569e+6 
         3037.7        1.511e+6 
           3038        1.522e+6 
         3038.3        1.592e+6 
         3038.6        1.704e+6 
         3038.9        1.836e+6 
         3039.2        1.966e+6 
         3039.5        2.076e+6 
         3039.8        2.155e+6 
         3040.1        2.196e+6 
         3040.4        2.196e+6 
         3040.7        2.162e+6 
           3041        2.103e+6 
         3041.3        2.032e+6 
         3041.6        1.964e+6 
         3041.9        1.913e+6 
         3042.2        1.887e+6 
         3042.5        1.891e+6 
         3042.8        1.917e+6 
         3043.1        1.954e+6 
         3043.4         1.99e+6 
         3043.7        2.015e+6 
           3044        2.027e+6 
         3044.3        2.031e+6 
         3044.6        2.032e+6 
         3044.9        2.036e+6 
         3045.2        2.042e+6 
         3045.5        2.044e+6 
         3045.8         2.03e+6 
         3046.1        1.992e+6 
         3046.4        1.927e+6 
         3046.7        1.844e+6 
           3047         1.76e+6 
         3047.3        1.695e+6 
         3047.6         1.67e+6 
         3047.9        1.692e+6 
         3048.2        1.758e+6 
         3048.5        1.855e+6 
         3048.8        1.967e+6 
         3049.1        2.075e+6 
         3049.4        2.169e+6 
         3049.7        2.247e+6 
           3050        2.316e+6 
         3050.3        2.391e+6 
         3050.6        2.485e+6 
         3050.9        2.603e+6 
         3051.2        2.736e+6 
         3051.5        2.867e+6 
         3051.8        2.968e+6 
         3052.1        3.015e+6 
         3052.4        2.996e+6 
         3052.7         2.91e+6 
           3053        2.773e+6 
         3053.3         2.61e+6 
         3053.6         2.45e+6 
         3053.9        2.318e+6 
         3054.2         2.23e+6 
         3054.5        2.193e+6 
         3054.8        2.199e+6 
         3055.1        2.229e+6 
         3055.4        2.259e+6 
         3055.7        2.265e+6 
           3056        2.228e+6 
         3056.3        2.144e+6 
         3056.6        2.023e+6 
         3056.9        1.884e+6 
         3057.2        1.751e+6 
         3057.5        1.644e+6 
         3057.8        1.572e+6 
         3058.1        1.536e+6 
         3058.4        1.532e+6 
         3058.7        1.557e+6 
           3059        1.613e+6 
         3059.3        1.704e+6 
         3059.6        1.832e+6 
         3059.9        1.989e+6 
         3060.2        2.161e+6 
         3060.5        2.325e+6 
         3060.8        2.458e+6 
         3061.1        2.544e+6 
         3061.4        2.573e+6 
         3061.7        2.548e+6 
           3062        2.477e+6 
         3062.3        2.372e+6 
         3062.6        2.249e+6 
         3062.9        2.125e+6 
         3063.2        2.015e+6 
         3063.5        1.931e+6 
         3063.8        1.881e+6 
         3064.1        1.859e+6 
         3064.4        1.855e+6 
         3064.7        1.851e+6 
           3065        1.833e+6 
         3065.3         1.79e+6 
         3065.6        1.725e+6 
         3065.9        1.649e+6 
         3066.2        1.579e+6 
         3066.5        1.534e+6 
         3066.8        1.529e+6 
         3067.1        1.572e+6 
         3067.4        1.663e+6 
         3067.7        1.795e+6 
           3068        1.956e+6 
         3068.3        2.128e+6 
         3068.6        2.293e+6 
         3068.9        2.429e+6 
         3069.2        2.521e+6 
         3069.5         2.56e+6 
         3069.8        2.547e+6 
         3070.1        2.491e+6 
         3070.4        2.405e+6 
         3070.7        2.305e+6 
           3071        2.201e+6 
         3071.3          2.1e+6 
         3071.6        2.011e+6 
         3071.9        1.941e+6 
         3072.2        1.901e+6 
         3072.5        1.901e+6 
         3072.8         1.94e+6 
         3073.1        2.008e+6 
         3073.4        2.084e+6 
         3073.7        2.142e+6 
           3074        2.163e+6 
         3074.3        2.141e+6 
         3074.6        2.088e+6 
         3074.9        2.029e+6 
         3075.2        1.996e+6 
         3075.5        2.009e+6 
         3075.8        2.073e+6 
         3076.1        2.173e+6 
         3076.4        2.278e+6 
         3076.7        2.357e+6 
           3077        2.386e+6 
         3077.3        2.358e+6 
         3077.6        2.286e+6 
         3077.9        2.195e+6 
         3078.2        2.116e+6 
         3078.5        2.073e+6 
         3078.8        2.081e+6 
         3079.1        2.137e+6 
         3079.4        2.223e+6 
         3079.7        2.315e+6 
           3080        2.389e+6 
         3080.3        2.427e+6 
         3080.6        2.424e+6 
         3080.9        2.384e+6 
         3081.2        2.318e+6 
         3081.5        2.242e+6 
         3081.8        2.173e+6 
         3082.1        2.126e+6 
         3082.4        2.114e+6 
         3082.7        2.143e+6 
           3083        2.215e+6 
         3083.3        2.329e+6 
         3083.6        2.475e+6 
         3083.9        2.641e+6 
         3084.2        2.808e+6 
         3084.5        2.957e+6 
         3084.8        3.071e+6 
         3085.1        3.135e+6 
         3085.4        3.138e+6 
         3085.7        3.076e+6 
           3086        2.952e+6 
         3086.3        2.775e+6 
         3086.6        2.564e+6 
         3086.9        2.344e+6 
         3087.2        2.142e+6 
         3087.5        1.979e+6 
         3087.8         1.87e+6 
         3088.1        1.819e+6 
         3088.4        1.817e+6 
         3088.7        1.847e+6 
           3089        1.892e+6 
         3089.3        1.938e+6 
         3089.6        1.981e+6 
         3089.9        2.022e+6 
         3090.2        2.063e+6 
         3090.5        2.105e+6 
         3090.8        2.144e+6 
         3091.1        2.173e+6 
         3091.4        2.183e+6 
         3091.7        2.163e+6 
           3092        2.112e+6 
         3092.3        2.037e+6 
         3092.6        1.954e+6 
         3092.9        1.888e+6 
         3093.2        1.858e+6 
         3093.5        1.873e+6 
         3093.8        1.925e+6 
         3094.1          2.0e+6 
         3094.4        2.072e+6 
         3094.7        2.122e+6 
           3095        2.135e+6 
         3095.3        2.108e+6 
         3095.6        2.049e+6 
         3095.9        1.973e+6 
         3096.2        1.901e+6 
         3096.5        1.851e+6 
         3096.8        1.834e+6 
         3097.1        1.849e+6 
         3097.4        1.886e+6 
         3097.7        1.922e+6 
           3098        1.935e+6 
         3098.3        1.906e+6 
         3098.6        1.832e+6 
         3098.9        1.718e+6 
         3099.2        1.583e+6 
         3099.5        1.446e+6 
         3099.8         1.33e+6 
         3100.1        1.245e+6 
         3100.4        1.201e+6 
         3100.7        1.201e+6 
           3101        1.244e+6 
         3101.3        1.329e+6 
         3101.6        1.451e+6 
         3101.9        1.604e+6 
         3102.2        1.773e+6 
         3102.5        1.943e+6 
         3102.8        2.092e+6 
         3103.1        2.204e+6 
         3103.4        2.265e+6 
         3103.7        2.275e+6 
           3104        2.237e+6 
         3104.3        2.169e+6 
         3104.6         2.09e+6 
         3104.9        2.021e+6 
         3105.2        1.982e+6 
         3105.5        1.983e+6 
         3105.8         2.03e+6 
         3106.1        2.117e+6 
         3106.4         2.23e+6 
         3106.7        2.355e+6 
           3107        2.475e+6 
         3107.3        2.579e+6 
         3107.6        2.657e+6 
         3107.9        2.705e+6 
         3108.2         2.72e+6 
         3108.5        2.703e+6 
         3108.8        2.657e+6 
         3109.1        2.588e+6 
         3109.4         2.51e+6 
         3109.7        2.437e+6 
           3110        2.385e+6 
         3110.3         2.37e+6 
         3110.6        2.396e+6 
         3110.9        2.458e+6 
         3111.2        2.545e+6 
         3111.5        2.641e+6 
         3111.8        2.727e+6 
         3112.1        2.791e+6 
         3112.4        2.824e+6 
         3112.7        2.821e+6 
           3113        2.786e+6 
         3113.3        2.725e+6 
         3113.6         2.65e+6 
         3113.9        2.576e+6 
         3114.2        2.515e+6 
         3114.5        2.478e+6 
         3114.8        2.465e+6 
         3115.1        2.473e+6 
         3115.4        2.489e+6 
         3115.7        2.498e+6 
           3116        2.485e+6 
         3116.3         2.44e+6 
         3116.6        2.363e+6 
         3116.9        2.258e+6 
         3117.2        2.136e+6 
         3117.5        2.012e+6 
         3117.8        1.898e+6 
         3118.1        1.804e+6 
         3118.4        1.733e+6 
         3118.7        1.686e+6 
           3119        1.658e+6 
         3119.3        1.649e+6 
         3119.6        1.657e+6 
         3119.9        1.682e+6 
         3120.2        1.723e+6 
         3120.5        1.775e+6 
         3120.8        1.832e+6 
         3121.1        1.886e+6 
         3121.4        1.935e+6 
         3121.7         1.98e+6 
           3122        2.027e+6 
         3122.3        2.084e+6 
         3122.6        2.151e+6 
         3122.9        2.223e+6 
         3123.2         2.29e+6 
         3123.5        2.334e+6 
         3123.8        2.343e+6 
         3124.1         2.31e+6 
         3124.4        2.242e+6 
         3124.7        2.159e+6 
           3125        2.092e+6 
         3125.3        2.068e+6 
         3125.6        2.105e+6 
         3125.9        2.206e+6 
         3126.2        2.354e+6 
         3126.5        2.518e+6 
         3126.8        2.662e+6 
         3127.1        2.759e+6 
         3127.4        2.793e+6 
         3127.7        2.764e+6 
           3128        2.686e+6 
         3128.3        2.582e+6 
         3128.6         2.47e+6 
         3128.9        2.364e+6 
         3129.2        2.265e+6 
         3129.5        2.172e+6 
         3129.8        2.078e+6 
         3130.1        1.985e+6 
         3130.4        1.897e+6 
         3130.7        1.822e+6 
           3131        1.765e+6 
         3131.3        1.729e+6 
         3131.6        1.712e+6 
         3131.9        1.707e+6 
         3132.2         1.71e+6 
         3132.5        1.717e+6 
         3132.8        1.729e+6 
         3133.1        1.747e+6 
         3133.4        1.773e+6 
         3133.7        1.813e+6 
           3134        1.872e+6 
         3134.3        1.947e+6 
         3134.6        2.037e+6 
         3134.9        2.132e+6 
         3135.2         2.22e+6 
         3135.5        2.293e+6 
         3135.8        2.347e+6 
         3136.1        2.387e+6 
         3136.4        2.424e+6 
         3136.7        2.469e+6 
           3137        2.525e+6 
         3137.3        2.588e+6 
         3137.6        2.649e+6 
         3137.9        2.695e+6 
         3138.2        2.719e+6 
         3138.5        2.718e+6 
         3138.8        2.698e+6 
         3139.1         2.67e+6 
         3139.4        2.647e+6 
         3139.7        2.641e+6 
           3140        2.655e+6 
         3140.3        2.688e+6 
         3140.6        2.726e+6 
         3140.9        2.752e+6 
         3141.2        2.747e+6 
         3141.5          2.7e+6 
         3141.8        2.604e+6 
         3142.1        2.465e+6 
         3142.4        2.293e+6 
         3142.7          2.1e+6 
           3143          1.9e+6 
         3143.3        1.705e+6 
         3143.6        1.531e+6 
         3143.9         1.39e+6 
         3144.2        1.294e+6 
         3144.5        1.253e+6 
         3144.8         1.27e+6 
         3145.1         1.34e+6 
         3145.4         1.45e+6 
         3145.7        1.584e+6 
           3146        1.722e+6 
         3146.3        1.849e+6 
         3146.6        1.959e+6 
         3146.9         2.05e+6 
         3147.2        2.132e+6 
         3147.5        2.211e+6 
         3147.8        2.293e+6 
         3148.1         2.38e+6 
         3148.4        2.468e+6 
         3148.7        2.551e+6 
           3149        2.627e+6 
         3149.3        2.694e+6 
         3149.6        2.755e+6 
         3149.9        2.813e+6 
         3150.2        2.865e+6 
         3150.5        2.907e+6 
         3150.8        2.932e+6 
         3151.1        2.939e+6 
         3151.4        2.929e+6 
         3151.7         2.91e+6 
           3152        2.889e+6 
         3152.3         2.87e+6 
         3152.6        2.852e+6 
         3152.9        2.828e+6 
         3153.2        2.788e+6 
         3153.5        2.727e+6 
         3153.8        2.645e+6 
         3154.1        2.549e+6 
         3154.4        2.453e+6 
         3154.7        2.369e+6 
           3155        2.307e+6 
         3155.3        2.271e+6 
         3155.6         2.26e+6 
         3155.9        2.262e+6 
         3156.2        2.264e+6 
         3156.5        2.251e+6 
         3156.8        2.211e+6 
         3157.1         2.14e+6 
         3157.4         2.04e+6 
         3157.7        1.924e+6 
           3158        1.806e+6 
         3158.3        1.705e+6 
         3158.6        1.633e+6 
         3158.9        1.596e+6 
         3159.2         1.59e+6 
         3159.5          1.6e+6 
         3159.8        1.607e+6 
         3160.1        1.596e+6 
         3160.4        1.561e+6 
         3160.7        1.507e+6 
           3161        1.449e+6 
         3161.3        1.408e+6 
         3161.6        1.402e+6 
         3161.9        1.445e+6 
         3162.2         1.54e+6 
         3162.5        1.678e+6 
         3162.8        1.841e+6 
         3163.1        2.004e+6 
         3163.4        2.143e+6 
         3163.7        2.236e+6 
           3164         2.28e+6 
         3164.3        2.278e+6 
         3164.6        2.249e+6 
         3164.9        2.213e+6 
         3165.2        2.188e+6 
         3165.5        2.186e+6 
         3165.8        2.205e+6 
         3166.1         2.24e+6 
         3166.4        2.276e+6 
         3166.7        2.298e+6 
           3167        2.295e+6 
         3167.3        2.261e+6 
         3167.6        2.202e+6 
         3167.9        2.134e+6 
         3168.2        2.079e+6 
         3168.5        2.057e+6 
         3168.8        2.082e+6 
         3169.1        2.155e+6 
         3169.4        2.268e+6 
         3169.7        2.404e+6 
           3170        2.543e+6 
         3170.3        2.672e+6 
         3170.6        2.781e+6 
         3170.9        2.869e+6 
         3171.2        2.938e+6 
         3171.5        2.993e+6 
         3171.8        3.036e+6 
         3172.1        3.064e+6 
         3172.4        3.072e+6 
         3172.7        3.055e+6 
           3173        3.011e+6 
         3173.3        2.945e+6 
         3173.6        2.867e+6 
         3173.9        2.787e+6 
         3174.2         2.72e+6 
         3174.5        2.677e+6 
         3174.8        2.669e+6 
         3175.1        2.697e+6 
         3175.4        2.756e+6 
         3175.7        2.831e+6 
           3176          2.9e+6 
         3176.3        2.941e+6 
         3176.6        2.936e+6 
         3176.9        2.876e+6 
         3177.2        2.764e+6 
         3177.5         2.61e+6 
         3177.8        2.429e+6 
         3178.1        2.237e+6 
