# Granada HRES Library
# atmosphere = Phoenix  (atmosphere model used)
# feh = -5  (value for [Fe/H] for the model.)
# logg = 2 log(cm/s2) (value for Log(G) for the model.)
# teff = 3000 K (value for the effective temperature for the model. Temperatures are given in K)
#
# column 1: WAVELENGTH (ANGSTROM), Wavelength in Angstrom
# column 2: FLUX (ERG/CM2/S/A), Flux in erg/cm2/s/A
         3000.2           28.07 
         3000.5           23.11 
         3000.8           19.92 
         3001.1           18.26 
         3001.4           17.61 
         3001.7           17.35 
           3002           17.19 
         3002.3           17.29 
         3002.6            18.3 
         3002.9           21.06 
         3003.2           26.27 
         3003.5           34.16 
         3003.8           44.35 
         3004.1           55.85 
         3004.4           67.36 
         3004.7           77.44 
           3005           84.85 
         3005.3           88.64 
         3005.6           88.23 
         3005.9           83.67 
         3006.2           75.74 
         3006.5           65.83 
         3006.8           55.58 
         3007.1           46.54 
         3007.4           39.83 
         3007.7           36.11 
           3008           35.65 
         3008.3           38.52 
         3008.6           44.84 
         3008.9           54.86 
         3009.2           68.66 
         3009.5           85.64 
         3009.8           103.8 
         3010.1           120.2 
         3010.4           131.3 
         3010.7           135.1 
           3011           132.1 
         3011.3           124.5 
         3011.6           115.9 
         3011.9           109.2 
         3012.2           105.3 
         3012.5           103.9 
         3012.8           103.8 
         3013.1           103.9 
         3013.4           103.5 
         3013.7           102.8 
           3014           101.6 
         3014.3             100 
         3014.6           98.21 
         3014.9           96.41 
         3015.2           94.82 
         3015.5           93.41 
         3015.8           91.77 
         3016.1           89.41 
         3016.4           85.89 
         3016.7           81.06 
           3017           75.18 
         3017.3           68.87 
         3017.6           62.83 
         3017.9           57.34 
         3018.2           52.21 
         3018.5           46.91 
         3018.8              41 
         3019.1           34.52 
         3019.4           27.85 
         3019.7           21.59 
           3020           16.38 
         3020.3           12.73 
         3020.6           11.09 
         3020.9           11.79 
         3021.2           14.94 
         3021.5           20.34 
         3021.8           27.44 
         3022.1           35.27 
         3022.4            42.6 
         3022.7           48.18 
           3023           51.04 
         3023.3            50.9 
         3023.6           48.23 
         3023.9           44.16 
         3024.2           39.89 
         3024.5           36.28 
         3024.8           33.65 
         3025.1           32.03 
         3025.4           31.51 
         3025.7           32.37 
           3026           34.84 
         3026.3            38.7 
         3026.6           43.19 
         3026.9           47.36 
         3027.2           50.63 
         3027.5           53.28 
         3027.8           56.45 
         3028.1           61.59 
         3028.4           69.65 
         3028.7           80.37 
           3029           92.17 
         3029.3           102.8 
         3029.6           109.9 
         3029.9           112.9 
         3030.2           112.3 
         3030.5           110.8 
         3030.8           111.2 
         3031.1           116.1 
         3031.4           125.9 
         3031.7             139 
           3032           151.1 
         3032.3           157.5 
         3032.6             155 
         3032.9           143.4 
         3033.2           125.9 
         3033.5           107.3 
         3033.8           92.55 
         3034.1           84.66 
         3034.4           83.98 
         3034.7           88.42 
           3035           94.52 
         3035.3           98.67 
         3035.6           98.45 
         3035.9           93.08 
         3036.2           83.49 
         3036.5           71.81 
         3036.8           60.84 
         3037.1           53.29 
         3037.4           51.13 
         3037.7           54.95 
           3038           63.88 
         3038.3           75.93 
         3038.6           88.93 
         3038.9           101.1 
         3039.2           111.3 
         3039.5           118.6 
         3039.8           122.2 
         3040.1           121.4 
         3040.4           116.1 
         3040.7           107.4 
           3041           97.79 
         3041.3           90.16 
         3041.6              87 
         3041.9           89.28 
         3042.2           96.13 
         3042.5           105.2 
         3042.8           113.5 
         3043.1           118.9 
         3043.4           120.7 
         3043.7           119.7 
           3044           117.3 
         3044.3           115.1 
         3044.6           114.1 
         3044.9           114.5 
         3045.2           115.6 
         3045.5           116.1 
         3045.8           113.9 
         3046.1           107.7 
         3046.4           96.93 
         3046.7           82.85 
           3047           67.83 
         3047.3           54.86 
         3047.6           46.51 
         3047.9           44.34 
         3048.2           48.66 
         3048.5           58.45 
         3048.8           71.47 
         3049.1           84.51 
         3049.4           94.19 
         3049.7           98.14 
           3050           96.02 
         3050.3           89.69 
         3050.6           82.29 
         3050.9           76.82 
         3051.2           74.99 
         3051.5           76.83 
         3051.8           81.03 
         3052.1           85.57 
         3052.4            88.4 
         3052.7           88.05 
           3053           84.18 
         3053.3           77.74 
         3053.6           70.61 
         3053.9           64.85 
         3054.2            61.9 
         3054.5           62.07 
         3054.8           64.52 
         3055.1           67.68 
         3055.4           69.92 
         3055.7           70.21 
           3056           68.45 
         3056.3           65.26 
         3056.6           61.59 
         3056.9           58.24 
         3057.2           55.55 
         3057.5           53.45 
         3057.8           51.54 
         3058.1            49.5 
         3058.4           47.52 
         3058.7           46.49 
           3059           47.72 
         3059.3           52.35 
         3059.6           60.76 
         3059.9           72.32 
         3060.2           85.71 
         3060.5           99.35 
         3060.8           111.9 
         3061.1           122.2 
         3061.4           129.8 
         3061.7           133.8 
           3062           133.1 
         3062.3           126.8 
         3062.6           114.6 
         3062.9           97.53 
         3063.2            78.2 
         3063.5           59.89 
         3063.8            45.4 
         3064.1           36.13 
         3064.4           31.83 
         3064.7           31.16 
           3065           32.52 
         3065.3           34.79 
         3065.6           37.61 
         3065.9            41.1 
         3066.2           45.34 
         3066.5           49.96 
         3066.8           54.14 
         3067.1           57.06 
         3067.4           58.47 
         3067.7           58.72 
           3068            58.5 
         3068.3           58.21 
         3068.6           57.68 
         3068.9           56.36 
         3069.2           53.85 
         3069.5            50.5 
         3069.8           47.62 
         3070.1              47 
         3070.4           50.18 
         3070.7           57.65 
           3071           68.59 
         3071.3           81.26 
         3071.6           93.86 
         3071.9           105.3 
         3072.2           115.3 
         3072.5           123.9 
         3072.8           131.5 
         3073.1           137.8 
         3073.4           142.9 
         3073.7           146.5 
           3074           148.6 
         3074.3           149.1 
         3074.6           148.4 
         3074.9           147.9 
         3075.2             150 
         3075.5           156.6 
         3075.8             168 
         3076.1           182.1 
         3076.4           194.9 
         3076.7           202.4 
           3077           202.4 
         3077.3           195.6 
         3077.6           184.4 
         3077.9             172 
         3078.2           160.6 
         3078.5           150.8 
         3078.8           141.7 
         3079.1           131.6 
         3079.4           119.4 
         3079.7           105.2 
           3080           89.76 
         3080.3            74.6 
         3080.6           60.81 
         3080.9           49.12 
         3081.2           39.96 
         3081.5            33.6 
         3081.8           30.18 
         3082.1           29.47 
         3082.4           30.85 
         3082.7           33.45 
           3083           36.67 
         3083.3            40.4 
         3083.6           45.04 
         3083.9           51.02 
         3084.2           58.55 
         3084.5           67.47 
         3084.8           77.34 
         3085.1           87.44 
         3085.4           96.73 
         3085.7           104.2 
           3086           109.6 
         3086.3           114.2 
         3086.6           120.7 
         3086.9           131.8 
         3087.2           149.2 
         3087.5           171.6 
         3087.8           194.5 
         3088.1             212 
         3088.4           218.3 
         3088.7           210.3 
           3089           188.8 
         3089.3           158.1 
         3089.6           124.3 
         3089.9           92.91 
         3090.2           67.52 
         3090.5           49.32 
         3090.8           37.58 
         3091.1           30.61 
         3091.4           26.58 
         3091.7            24.2 
           3092           22.93 
         3092.3              23 
         3092.6           25.09 
         3092.9           29.85 
         3093.2           37.41 
         3093.5           47.12 
         3093.8           57.69 
         3094.1           67.59 
         3094.4           75.44 
         3094.7           80.31 
           3095           81.83 
         3095.3           80.45 
         3095.6           77.73 
         3095.9           76.46 
         3096.2           80.11 
         3096.5           91.47 
         3096.8           110.9 
         3097.1           135.1 
         3097.4           157.9 
         3097.7           172.1 
           3098           172.8 
         3098.3           159.1 
         3098.6           135.2 
         3098.9           107.7 
         3099.2           83.27 
         3099.5           66.36 
         3099.8           58.16 
         3100.1           56.97 
         3100.4           59.54 
         3100.7            62.7 
           3101           64.85 
         3101.3           69.85 
         3101.6           77.56 
         3101.9           91.07 
         3102.2           110.1 
         3102.5           132.5 
         3102.8           155.5 
         3103.1           176.7 
         3103.4           193.6 
         3103.7             205 
           3104           209.3 
         3104.3             205 
         3104.6           191.6 
         3104.9           170.5 
         3105.2           145.3 
         3105.5           120.4 
         3105.8           99.81 
         3106.1           86.24 
         3106.4           80.38 
         3106.7           81.63 
           3107           88.46 
         3107.3           98.46 
         3107.6           108.6 
         3107.9           116.1 
         3108.2           119.1 
         3108.5           118.4 
         3108.8           116.5 
         3109.1           117.4 
         3109.4           124.4 
         3109.7             139 
           3110           160.4 
         3110.3             185 
         3110.6           207.3 
         3110.9           222.1 
         3111.2             225 
         3111.5           215.3 
         3111.8           195.9 
         3112.1           171.5 
         3112.4           147.8 
         3112.7           129.1 
           3113           118.3 
         3113.3           116.7 
         3113.6             125 
         3113.9           143.2 
         3114.2           170.2 
         3114.5           203.4 
         3114.8           237.3 
         3115.1           265.7 
         3115.4           281.9 
         3115.7           281.8 
           3116           265.9 
         3116.3             240 
         3116.6             214 
         3116.9             199 
         3117.2           202.4 
         3117.5           226.1 
         3117.8           265.5 
         3118.1           311.3 
         3118.4             353 
         3118.7           382.2 
           3119           395.8 
         3119.3           395.6 
         3119.6           387.1 
         3119.9           375.8 
         3120.2           363.2 
         3120.5           346.6 
         3120.8           321.4 
         3121.1           284.8 
         3121.4             240 
         3121.7           195.1 
           3122           160.1 
         3122.3           141.8 
         3122.6           141.1 
         3122.9           152.9 
         3123.2             169 
         3123.5           181.9 
         3123.8           188.5 
         3124.1             190 
         3124.4           190.4 
         3124.7           193.9 
           3125           201.5 
         3125.3           210.8 
         3125.6           217.7 
         3125.9           218.8 
         3126.2           213.9 
         3126.5             205 
         3126.8           194.1 
         3127.1           182.2 
         3127.4           169.2 
         3127.7           155.1 
           3128           140.8 
         3128.3           127.5 
         3128.6           117.1 
         3128.9           111.1 
         3129.2           110.7 
         3129.5           117.2 
         3129.8           131.4 
         3130.1           154.1 
         3130.4           185.7 
         3130.7           224.5 
           3131           266.1 
         3131.3           302.5 
         3131.6           325.1 
         3131.9           327.9 
         3132.2           311.2 
         3132.5           281.2 
         3132.8           246.8 
         3133.1           216.4 
         3133.4           194.9 
         3133.7           185.2 
           3134           187.5 
         3134.3           199.1 
         3134.6           214.6 
         3134.9             226 
         3135.2           227.7 
         3135.5           218.8 
         3135.8             204 
         3136.1           191.6 
         3136.4           188.9 
         3136.7           200.5 
           3137           226.4 
         3137.3           261.2 
         3137.6           296.9 
         3137.9           324.3 
         3138.2           337.5 
         3138.5           335.9 
         3138.8           324.4 
         3139.1           310.8 
         3139.4           302.1 
         3139.7           302.5 
           3140           312.2 
         3140.3           328.1 
         3140.6             345 
         3140.9           357.8 
         3141.2           364.6 
         3141.5             366 
         3141.8           364.3 
         3142.1           360.1 
         3142.4           351.6 
         3142.7           336.4 
           3143           315.4 
         3143.3             293 
         3143.6           274.5 
         3143.9           262.4 
         3144.2           254.8 
         3144.5           247.2 
         3144.8             236 
         3145.1           220.4 
         3145.4           201.6 
         3145.7           181.8 
           3146           163.8 
         3146.3           151.5 
         3146.6           149.2 
         3146.9           161.6 
         3147.2           192.4 
         3147.5           241.7 
         3147.8           304.9 
         3148.1           371.9 
         3148.4           428.8 
         3148.7           461.8 
           3149             463 
         3149.3           434.2 
         3149.6             386 
         3149.9           332.1 
         3150.2           283.5 
         3150.5           245.2 
         3150.8           216.7 
         3151.1           195.5 
         3151.4             180 
         3151.7           170.3 
           3152           167.4 
         3152.3           171.1 
         3152.6           179.6 
         3152.9           190.1 
         3153.2           200.7 
         3153.5           211.8 
         3153.8           225.7 
         3154.1           244.4 
         3154.4           266.3 
         3154.7           285.7 
           3155           295.9 
         3155.3           293.1 
         3155.6           279.6 
         3155.9           262.5 
         3156.2           249.9 
         3156.5           247.8 
         3156.8           257.3 
         3157.1           275.4 
         3157.4           297.4 
         3157.7           319.1 
           3158             338 
         3158.3           353.3 
         3158.6           364.5 
         3158.9           369.9 
         3159.2           367.6 
         3159.5           357.5 
         3159.8           343.3 
         3160.1           333.2 
         3160.4           335.7 
         3160.7           354.9 
           3161           387.8 
         3161.3           426.3 
         3161.6           463.5 
         3161.9           497.7 
         3162.2           532.2 
         3162.5           569.9 
         3162.8           608.8 
         3163.1           643.1 
         3163.4           667.2 
         3163.7           679.5 
           3164             682 
         3164.3           676.9 
         3164.6           664.3 
         3164.9           644.6 
         3165.2           621.5 
         3165.5           603.5 
         3165.8             603 
         3166.1           631.4 
         3166.4           694.4 
         3166.7           787.1 
           3167           892.8 
         3167.3           985.4 
         3167.6            1038 
         3167.9            1036 
         3168.2           984.8 
         3168.5           905.7 
         3168.8           829.1 
         3169.1           775.1 
         3169.4           746.2 
         3169.7           729.3 
           3170           707.8 
         3170.3           672.6 
         3170.6           628.1 
         3170.9             587 
         3171.2           561.8 
         3171.5             557 
         3171.8           566.5 
         3172.1           577.8 
         3172.4           580.1 
         3172.7           571.1 
           3173           559.1 
         3173.3           557.8 
         3173.6           579.7 
         3173.9           629.1 
         3174.2           701.2 
         3174.5           784.6 
         3174.8           865.8 
         3175.1           931.6 
         3175.4           969.8 
         3175.7           971.8 
           3176             935 
         3176.3             866 
         3176.6           779.7 
         3176.9           696.3 
         3177.2           635.3 
         3177.5           609.4 
         3177.8             620 
         3178.1           655.5 
