# Granada HRES Library
# atmosphere = Spectrum  (atmosphere model used)
# feh = -5  (value for [Fe/H] for the model.)
# logg = 3.5 log(cm/s2) (value for Log(G) for the model.)
# teff = 5500 K (value for the effective temperature for the model. Temperatures are given in K)
#
# column 1: WAVELENGTH (ANGSTROM), Wavelength in Angstrom
# column 2: FLUX (ERG/CM2/S/A), Flux in erg/cm2/s/A
         3000.2        1.075e+6 
         3000.5        1.088e+6 
         3000.8        1.104e+6 
         3001.1        1.121e+6 
         3001.4        1.139e+6 
         3001.7        1.158e+6 
           3002        1.182e+6 
         3002.3        1.221e+6 
         3002.6        1.285e+6 
         3002.9        1.385e+6 
         3003.2        1.526e+6 
         3003.5        1.709e+6 
         3003.8        1.924e+6 
         3004.1        2.154e+6 
         3004.4        2.377e+6 
         3004.7        2.571e+6 
           3005        2.716e+6 
         3005.3        2.797e+6 
         3005.6        2.808e+6 
         3005.9        2.751e+6 
         3006.2        2.637e+6 
         3006.5        2.483e+6 
         3006.8        2.311e+6 
         3007.1        2.144e+6 
         3007.4        2.003e+6 
         3007.7        1.907e+6 
           3008        1.865e+6 
         3008.3        1.884e+6 
         3008.6        1.962e+6 
         3008.9        2.093e+6 
         3009.2        2.263e+6 
         3009.5        2.454e+6 
         3009.8        2.644e+6 
         3010.1        2.808e+6 
         3010.4        2.927e+6 
         3010.7        2.991e+6 
           3011        2.998e+6 
         3011.3        2.961e+6 
         3011.6          2.9e+6 
         3011.9        2.835e+6 
         3012.2         2.78e+6 
         3012.5        2.741e+6 
         3012.8        2.717e+6 
         3013.1        2.702e+6 
         3013.4        2.689e+6 
         3013.7        2.675e+6 
           3014        2.657e+6 
         3014.3        2.638e+6 
         3014.6        2.619e+6 
         3014.9        2.602e+6 
         3015.2        2.587e+6 
         3015.5        2.571e+6 
         3015.8        2.552e+6 
         3016.1        2.523e+6 
         3016.4         2.48e+6 
         3016.7         2.42e+6 
           3017        2.342e+6 
         3017.3        2.244e+6 
         3017.6        2.127e+6 
         3017.9        1.993e+6 
         3018.2        1.843e+6 
         3018.5        1.679e+6 
         3018.8        1.506e+6 
         3019.1        1.332e+6 
         3019.4        1.166e+6 
         3019.7        1.021e+6 
           3020          911000 
         3020.3          851900 
         3020.6          856500 
         3020.9          933800 
         3021.2        1.084e+6 
         3021.5        1.296e+6 
         3021.8        1.552e+6 
         3022.1        1.826e+6 
         3022.4        2.088e+6 
         3022.7        2.311e+6 
           3023        2.476e+6 
         3023.3        2.571e+6 
         3023.6        2.597e+6 
         3023.9         2.56e+6 
         3024.2        2.473e+6 
         3024.5        2.354e+6 
         3024.8        2.222e+6 
         3025.1        2.103e+6 
         3025.4         2.02e+6 
         3025.7        1.997e+6 
           3026        2.048e+6 
         3026.3        2.175e+6 
         3026.6        2.365e+6 
         3026.9        2.592e+6 
         3027.2        2.825e+6 
         3027.5        3.031e+6 
         3027.8        3.185e+6 
         3028.1        3.273e+6 
         3028.4        3.291e+6 
         3028.7        3.245e+6 
           3029         3.15e+6 
         3029.3        3.022e+6 
         3029.6         2.88e+6 
         3029.9         2.74e+6 
         3030.2        2.616e+6 
         3030.5         2.52e+6 
         3030.8        2.461e+6 
         3031.1        2.445e+6 
         3031.4        2.473e+6 
         3031.7        2.541e+6 
           3032        2.637e+6 
         3032.3        2.749e+6 
         3032.6         2.86e+6 
         3032.9        2.963e+6 
         3033.2        3.052e+6 
         3033.5        3.129e+6 
         3033.8        3.198e+6 
         3034.1        3.259e+6 
         3034.4        3.309e+6 
         3034.7        3.338e+6 
           3035         3.33e+6 
         3035.3         3.27e+6 
         3035.6        3.148e+6 
         3035.9        2.962e+6 
         3036.2        2.725e+6 
         3036.5        2.461e+6 
         3036.8        2.205e+6 
         3037.1        1.993e+6 
         3037.4        1.853e+6 
         3037.7        1.801e+6 
           3038        1.838e+6 
         3038.3        1.947e+6 
         3038.6        2.101e+6 
         3038.9        2.269e+6 
         3039.2         2.42e+6 
         3039.5        2.532e+6 
         3039.8         2.59e+6 
         3040.1        2.594e+6 
         3040.4         2.55e+6 
         3040.7        2.475e+6 
           3041        2.387e+6 
         3041.3        2.307e+6 
         3041.6        2.255e+6 
         3041.9        2.242e+6 
         3042.2        2.276e+6 
         3042.5        2.353e+6 
         3042.8        2.461e+6 
         3043.1        2.583e+6 
         3043.4        2.701e+6 
         3043.7          2.8e+6 
           3044        2.873e+6 
         3044.3        2.916e+6 
         3044.6         2.93e+6 
         3044.9        2.916e+6 
         3045.2         2.87e+6 
         3045.5        2.792e+6 
         3045.8        2.679e+6 
         3046.1        2.534e+6 
         3046.4        2.368e+6 
         3046.7        2.201e+6 
           3047         2.06e+6 
         3047.3        1.971e+6 
         3047.6         1.95e+6 
         3047.9        2.002e+6 
         3048.2        2.114e+6 
         3048.5        2.261e+6 
         3048.8        2.416e+6 
         3049.1        2.552e+6 
         3049.4        2.653e+6 
         3049.7        2.719e+6 
           3050        2.767e+6 
         3050.3        2.816e+6 
         3050.6        2.888e+6 
         3050.9        2.995e+6 
         3051.2        3.129e+6 
         3051.5        3.271e+6 
         3051.8        3.392e+6 
         3052.1        3.462e+6 
         3052.4        3.463e+6 
         3052.7        3.393e+6 
           3053        3.268e+6 
         3053.3        3.115e+6 
         3053.6        2.966e+6 
         3053.9        2.851e+6 
         3054.2        2.788e+6 
         3054.5        2.779e+6 
         3054.8        2.812e+6 
         3055.1         2.86e+6 
         3055.4        2.894e+6 
         3055.7        2.888e+6 
           3056        2.822e+6 
         3056.3        2.695e+6 
         3056.6        2.517e+6 
         3056.9        2.309e+6 
         3057.2        2.099e+6 
         3057.5        1.911e+6 
         3057.8        1.764e+6 
         3058.1         1.67e+6 
         3058.4        1.635e+6 
         3058.7        1.662e+6 
           3059        1.751e+6 
         3059.3        1.901e+6 
         3059.6        2.101e+6 
         3059.9        2.336e+6 
         3060.2        2.582e+6 
         3060.5        2.813e+6 
         3060.8        3.004e+6 
         3061.1        3.136e+6 
         3061.4        3.199e+6 
         3061.7        3.192e+6 
           3062        3.121e+6 
         3062.3        2.997e+6 
         3062.6        2.837e+6 
         3062.9        2.659e+6 
         3063.2         2.48e+6 
         3063.5         2.32e+6 
         3063.8        2.191e+6 
         3064.1        2.098e+6 
         3064.4        2.039e+6 
         3064.7        2.002e+6 
           3065        1.973e+6 
         3065.3        1.935e+6 
         3065.6        1.881e+6 
         3065.9        1.811e+6 
         3066.2        1.733e+6 
         3066.5        1.663e+6 
         3066.8         1.62e+6 
         3067.1         1.62e+6 
         3067.4        1.672e+6 
         3067.7        1.779e+6 
           3068        1.931e+6 
         3068.3        2.113e+6 
         3068.6        2.306e+6 
         3068.9        2.487e+6 
         3069.2         2.64e+6 
         3069.5        2.755e+6 
         3069.8        2.832e+6 
         3070.1        2.872e+6 
         3070.4        2.885e+6 
         3070.7        2.876e+6 
           3071        2.852e+6 
         3071.3        2.819e+6 
         3071.6        2.784e+6 
         3071.9        2.754e+6 
         3072.2        2.738e+6 
         3072.5        2.744e+6 
         3072.8        2.772e+6 
         3073.1        2.811e+6 
         3073.4         2.85e+6 
         3073.7        2.871e+6 
           3074        2.863e+6 
         3074.3        2.823e+6 
         3074.6        2.762e+6 
         3074.9        2.697e+6 
         3075.2        2.653e+6 
         3075.5        2.646e+6 
         3075.8        2.681e+6 
         3076.1         2.75e+6 
         3076.4        2.832e+6 
         3076.7        2.905e+6 
           3077        2.949e+6 
         3077.3        2.956e+6 
         3077.6        2.931e+6 
         3077.9        2.889e+6 
         3078.2        2.847e+6 
         3078.5         2.82e+6 
         3078.8        2.814e+6 
         3079.1        2.825e+6 
         3079.4        2.842e+6 
         3079.7        2.847e+6 
           3080        2.829e+6 
         3080.3        2.782e+6 
         3080.6        2.708e+6 
         3080.9        2.616e+6 
         3081.2         2.52e+6 
         3081.5        2.434e+6 
         3081.8        2.372e+6 
         3082.1        2.343e+6 
         3082.4        2.352e+6 
         3082.7        2.402e+6 
           3083        2.492e+6 
         3083.3        2.618e+6 
         3083.6        2.773e+6 
         3083.9        2.946e+6 
         3084.2        3.121e+6 
         3084.5         3.28e+6 
         3084.8        3.402e+6 
         3085.1        3.469e+6 
         3085.4        3.469e+6 
         3085.7        3.398e+6 
           3086         3.26e+6 
         3086.3        3.073e+6 
         3086.6        2.859e+6 
         3086.9        2.646e+6 
         3087.2        2.462e+6 
         3087.5        2.325e+6 
         3087.8        2.241e+6 
         3088.1        2.203e+6 
         3088.4        2.195e+6 
         3088.7        2.197e+6 
           3089        2.192e+6 
         3089.3        2.171e+6 
         3089.6        2.134e+6 
         3089.9         2.09e+6 
         3090.2        2.048e+6 
         3090.5        2.016e+6 
         3090.8        1.996e+6 
         3091.1        1.986e+6 
         3091.4        1.976e+6 
         3091.7        1.961e+6 
           3092        1.938e+6 
         3092.3        1.908e+6 
         3092.6        1.883e+6 
         3092.9        1.873e+6 
         3093.2        1.891e+6 
         3093.5        1.941e+6 
         3093.8        2.016e+6 
         3094.1        2.102e+6 
         3094.4        2.184e+6 
         3094.7        2.241e+6 
           3095        2.261e+6 
         3095.3        2.242e+6 
         3095.6        2.187e+6 
         3095.9         2.11e+6 
         3096.2        2.031e+6 
         3096.5        1.968e+6 
         3096.8        1.932e+6 
         3097.1        1.924e+6 
         3097.4        1.934e+6 
         3097.7        1.944e+6 
           3098        1.933e+6 
         3098.3        1.883e+6 
         3098.6        1.788e+6 
         3098.9        1.654e+6 
         3099.2        1.495e+6 
         3099.5        1.333e+6 
         3099.8         1.19e+6 
         3100.1        1.084e+6 
         3100.4        1.028e+6 
         3100.7        1.027e+6 
           3101        1.084e+6 
         3101.3        1.198e+6 
         3101.6        1.364e+6 
         3101.9        1.572e+6 
         3102.2        1.806e+6 
         3102.5        2.046e+6 
         3102.8        2.271e+6 
         3103.1         2.46e+6 
         3103.4        2.598e+6 
         3103.7        2.676e+6 
           3104        2.697e+6 
         3104.3        2.672e+6 
         3104.6        2.619e+6 
         3104.9        2.559e+6 
         3105.2        2.515e+6 
         3105.5        2.503e+6 
         3105.8        2.533e+6 
         3106.1        2.605e+6 
         3106.4        2.709e+6 
         3106.7        2.833e+6 
           3107         2.96e+6 
         3107.3        3.075e+6 
         3107.6        3.166e+6 
         3107.9        3.225e+6 
         3108.2        3.251e+6 
         3108.5        3.244e+6 
         3108.8        3.214e+6 
         3109.1        3.169e+6 
         3109.4        3.122e+6 
         3109.7        3.084e+6 
           3110        3.067e+6 
         3110.3        3.076e+6 
         3110.6        3.111e+6 
         3110.9        3.164e+6 
         3111.2        3.224e+6 
         3111.5         3.28e+6 
         3111.8        3.317e+6 
         3112.1        3.327e+6 
         3112.4        3.305e+6 
         3112.7        3.253e+6 
           3113        3.175e+6 
         3113.3        3.086e+6 
         3113.6        3.001e+6 
         3113.9        2.938e+6 
         3114.2         2.91e+6 
         3114.5        2.921e+6 
         3114.8        2.965e+6 
         3115.1        3.026e+6 
         3115.4        3.081e+6 
         3115.7        3.108e+6 
           3116        3.089e+6 
         3116.3        3.018e+6 
         3116.6        2.899e+6 
         3116.9        2.749e+6 
         3117.2        2.587e+6 
         3117.5        2.432e+6 
         3117.8        2.299e+6 
         3118.1        2.196e+6 
         3118.4        2.125e+6 
         3118.7        2.084e+6 
           3119        2.067e+6 
         3119.3        2.069e+6 
         3119.6        2.088e+6 
         3119.9        2.118e+6 
         3120.2        2.154e+6 
         3120.5        2.188e+6 
         3120.8        2.214e+6 
         3121.1        2.225e+6 
         3121.4        2.223e+6 
         3121.7        2.215e+6 
           3122        2.211e+6 
         3122.3        2.222e+6 
         3122.6        2.253e+6 
         3122.9        2.302e+6 
         3123.2        2.362e+6 
         3123.5        2.418e+6 
         3123.8        2.459e+6 
         3124.1        2.476e+6 
         3124.4         2.47e+6 
         3124.7        2.451e+6 
           3125        2.434e+6 
         3125.3        2.436e+6 
         3125.6        2.469e+6 
         3125.9        2.533e+6 
         3126.2        2.622e+6 
         3126.5        2.719e+6 
         3126.8        2.806e+6 
         3127.1        2.867e+6 
         3127.4        2.893e+6 
         3127.7        2.884e+6 
           3128         2.85e+6 
         3128.3        2.801e+6 
         3128.6        2.751e+6 
         3128.9        2.706e+6 
         3129.2        2.667e+6 
         3129.5        2.629e+6 
         3129.8         2.59e+6 
         3130.1        2.548e+6 
         3130.4        2.505e+6 
         3130.7        2.464e+6 
           3131        2.428e+6 
         3131.3        2.399e+6 
         3131.6        2.376e+6 
         3131.9        2.357e+6 
         3132.2        2.336e+6 
         3132.5        2.314e+6 
         3132.8        2.288e+6 
         3133.1        2.261e+6 
         3133.4        2.242e+6 
         3133.7        2.237e+6 
           3134        2.256e+6 
         3134.3        2.303e+6 
         3134.6        2.374e+6 
         3134.9        2.459e+6 
         3135.2        2.544e+6 
         3135.5        2.617e+6 
         3135.8         2.67e+6 
         3136.1        2.705e+6 
         3136.4        2.729e+6 
         3136.7        2.748e+6 
           3137        2.767e+6 
         3137.3        2.785e+6 
         3137.6        2.797e+6 
         3137.9        2.801e+6 
         3138.2        2.795e+6 
         3138.5        2.783e+6 
         3138.8        2.772e+6 
         3139.1        2.769e+6 
         3139.4        2.782e+6 
         3139.7        2.813e+6 
           3140        2.859e+6 
         3140.3        2.916e+6 
         3140.6        2.971e+6 
         3140.9         3.01e+6 
         3141.2        3.018e+6 
         3141.5        2.983e+6 
         3141.8        2.895e+6 
         3142.1        2.753e+6 
         3142.4        2.559e+6 
         3142.7        2.325e+6 
           3143        2.068e+6 
         3143.3        1.811e+6 
         3143.6        1.576e+6 
         3143.9        1.388e+6 
         3144.2        1.262e+6 
         3144.5        1.207e+6 
         3144.8        1.223e+6 
         3145.1        1.299e+6 
         3145.4        1.418e+6 
         3145.7        1.559e+6 
           3146        1.702e+6 
         3146.3        1.834e+6 
         3146.6         1.95e+6 
         3146.9        2.052e+6 
         3147.2        2.148e+6 
         3147.5        2.245e+6 
         3147.8         2.35e+6 
         3148.1         2.46e+6 
         3148.4         2.57e+6 
         3148.7        2.674e+6 
           3149        2.765e+6 
         3149.3         2.84e+6 
         3149.6          2.9e+6 
         3149.9        2.949e+6 
         3150.2        2.988e+6 
         3150.5        3.016e+6 
         3150.8         3.03e+6 
         3151.1         3.03e+6 
         3151.4        3.018e+6 
         3151.7          3.0e+6 
           3152        2.983e+6 
         3152.3        2.973e+6 
         3152.6        2.973e+6 
         3152.9        2.976e+6 
         3153.2        2.976e+6 
         3153.5        2.964e+6 
         3153.8        2.935e+6 
         3154.1        2.889e+6 
         3154.4         2.83e+6 
         3154.7        2.763e+6 
           3155        2.693e+6 
         3155.3        2.619e+6 
         3155.6        2.534e+6 
         3155.9        2.435e+6 
         3156.2        2.317e+6 
         3156.5        2.181e+6 
         3156.8        2.032e+6 
         3157.1        1.882e+6 
         3157.4        1.744e+6 
         3157.7        1.629e+6 
           3158        1.545e+6 
         3158.3        1.497e+6 
         3158.6        1.482e+6 
         3158.9        1.494e+6 
         3159.2        1.523e+6 
         3159.5        1.555e+6 
         3159.8        1.583e+6 
         3160.1        1.596e+6 
         3160.4        1.597e+6 
         3160.7        1.589e+6 
           3161        1.585e+6 
         3161.3        1.596e+6 
         3161.6        1.632e+6 
         3161.9        1.698e+6 
         3162.2         1.79e+6 
         3162.5          1.9e+6 
         3162.8        2.013e+6 
         3163.1        2.114e+6 
         3163.4         2.19e+6 
         3163.7        2.234e+6 
           3164        2.249e+6 
         3164.3        2.245e+6 
         3164.6        2.235e+6 
         3164.9        2.234e+6 
         3165.2        2.251e+6 
         3165.5         2.29e+6 
         3165.8        2.347e+6 
         3166.1        2.414e+6 
         3166.4        2.479e+6 
         3166.7        2.529e+6 
           3167        2.551e+6 
         3167.3        2.542e+6 
         3167.6        2.502e+6 
         3167.9        2.442e+6 
         3168.2        2.379e+6 
         3168.5         2.33e+6 
         3168.8        2.315e+6 
         3169.1        2.342e+6 
         3169.4        2.415e+6 
         3169.7        2.524e+6 
           3170        2.658e+6 
         3170.3        2.799e+6 
         3170.6        2.933e+6 
         3170.9        3.052e+6 
         3171.2         3.15e+6 
         3171.5        3.224e+6 
         3171.8        3.275e+6 
         3172.1          3.3e+6 
         3172.4        3.297e+6 
         3172.7        3.267e+6 
           3173        3.211e+6 
         3173.3        3.137e+6 
         3173.6        3.054e+6 
         3173.9        2.975e+6 
         3174.2        2.912e+6 
         3174.5        2.877e+6 
         3174.8        2.878e+6 
         3175.1        2.916e+6 
         3175.4        2.986e+6 
         3175.7        3.075e+6 
           3176        3.164e+6 
         3176.3        3.232e+6 
         3176.6        3.261e+6 
         3176.9        3.239e+6 
         3177.2        3.167e+6 
         3177.5        3.049e+6 
         3177.8        2.898e+6 
         3178.1        2.727e+6 
