# Granada HRES Library
# atmosphere = Phoenix  (atmosphere model used)
# feh = 3  (value for [Fe/H] for the model.)
# logg = -0.5 log(cm/s2) (value for Log(G) for the model.)
# teff = 4500 K (value for the effective temperature for the model. Temperatures are given in K)
#
# column 1: WAVELENGTH (ANGSTROM), Wavelength in Angstrom
# column 2: FLUX (ERG/CM2/S/A), Flux in erg/cm2/s/A
         3000.2           74.99 
         3000.5           62.73 
         3000.8           55.08 
         3001.1           51.53 
         3001.4           50.77 
         3001.7           51.39 
           3002           52.78 
         3002.3           55.86 
         3002.6           63.21 
         3002.9           78.41 
         3003.2           105.1 
         3003.5           145.4 
         3003.8           199.4 
         3004.1           263.7 
         3004.4           332.1 
         3004.7           396.4 
           3005           448.4 
         3005.3           480.4 
         3005.6           487.5 
         3005.9           468.4 
         3006.2           425.9 
         3006.5             367 
         3006.8           301.1 
         3007.1           238.2 
         3007.4           187.4 
         3007.7             155 
           3008           143.8 
         3008.3           154.2 
         3008.6           184.1 
         3008.9           230.7 
         3009.2           289.9 
         3009.5           355.6 
         3009.8           418.7 
         3010.1           468.6 
         3010.4           495.6 
         3010.7           496.7 
           3011           477.9 
         3011.3           452.3 
         3011.6           434.7 
         3011.9           435.2 
         3012.2           453.5 
         3012.5           480.8 
         3012.8           503.5 
         3013.1           511.1 
         3013.4           500.1 
         3013.7           474.7 
           3014           443.6 
         3014.3           415.9 
         3014.6           397.4 
         3014.9           388.9 
         3015.2           386.6 
         3015.5           385.1 
         3015.8             380 
         3016.1             369 
         3016.4           351.5 
         3016.7           327.4 
           3017           297.4 
         3017.3             264 
         3017.6             230 
         3017.9           198.3 
         3018.2           169.6 
         3018.5           143.6 
         3018.8           119.3 
         3019.1           96.37 
         3019.4           75.49 
         3019.7           57.78 
           3020           44.26 
         3020.3           35.57 
         3020.6           32.19 
         3020.9           34.46 
         3021.2           42.61 
         3021.5           56.45 
         3021.8           74.95 
         3022.1           96.03 
         3022.4           116.7 
         3022.7           133.3 
           3023           143.3 
         3023.3           145.6 
         3023.6           141.4 
         3023.9           133.6 
         3024.2           125.1 
         3024.5           117.7 
         3024.8           111.9 
         3025.1           108.2 
         3025.4           108.6 
         3025.7           116.6 
           3026           136.3 
         3026.3           170.4 
         3026.6             219 
         3026.9           278.9 
         3027.2           344.3 
         3027.5           409.7 
         3027.8           470.9 
         3028.1             527 
         3028.4           579.3 
         3028.7           628.6 
           3029           671.6 
         3029.3           700.5 
         3029.6             706 
         3029.9           683.2 
         3030.2           637.5 
         3030.5           585.5 
         3030.8           551.8 
         3031.1           559.7 
         3031.4           621.5 
         3031.7           731.2 
           3032           865.8 
         3032.3           992.8 
         3032.6            1082 
         3032.9            1117 
         3033.2            1097 
         3033.5            1033 
         3033.8           940.2 
         3034.1             841 
         3034.4           749.8 
         3034.7           673.9 
           3035           611.7 
         3035.3           554.8 
         3035.6           494.4 
         3035.9           426.2 
         3036.2           352.5 
         3036.5           279.8 
         3036.8           217.1 
         3037.1           171.8 
         3037.4           148.2 
         3037.7           147.6 
           3038           168.1 
         3038.3           205.8 
         3038.6           256.2 
         3038.9           315.2 
         3039.2           377.6 
         3039.5           438.5 
         3039.8           492.4 
         3040.1           534.8 
         3040.4           562.5 
         3040.7           573.8 
           3041           569.5 
         3041.3           554.4 
         3041.6           537.4 
         3041.9           528.5 
         3042.2             534 
         3042.5             553 
         3042.8             579 
         3043.1           604.4 
         3043.4           625.7 
         3043.7           643.1 
           3044           658.3 
         3044.3           670.4 
         3044.6           675.7 
         3044.9           669.1 
         3045.2           646.3 
         3045.5           605.3 
         3045.8           546.5 
         3046.1           472.7 
         3046.4           389.9 
         3046.7           306.9 
           3047           233.4 
         3047.3           178.3 
         3047.6           147.6 
         3047.9           143.9 
         3048.2             166 
         3048.5           208.6 
         3048.8           262.6 
         3049.1           315.5 
         3049.4           354.8 
         3049.7           371.9 
           3050           366.4 
         3050.3           346.9 
         3050.6           327.7 
         3050.9           322.8 
         3051.2           340.4 
         3051.5           380.1 
         3051.8             433 
         3052.1           484.2 
         3052.4           517.7 
         3052.7           522.3 
           3053           496.4 
         3053.3           448.7 
         3053.6           394.5 
         3053.9           348.6 
         3054.2           320.6 
         3054.5           312.8 
         3054.8           320.3 
         3055.1           334.4 
         3055.4           345.4 
         3055.7           345.5 
           3056           331.3 
         3056.3           304.1 
         3056.6             269 
         3056.9           232.1 
         3057.2           198.4 
         3057.5           170.4 
         3057.8           148.5 
         3058.1           131.8 
         3058.4           120.6 
         3058.7           117.4 
           3059             127 
         3059.3           155.3 
         3059.6           206.8 
         3059.9           282.7 
         3060.2           379.5 
         3060.5           489.5 
         3060.8           603.2 
         3061.1           711.6 
         3061.4           807.3 
         3061.7           884.1 
           3062           935.2 
         3062.3             953 
         3062.6           932.5 
         3062.9           875.9 
         3063.2           794.4 
         3063.5           705.6 
         3063.8           628.5 
         3064.1           577.3 
         3064.4             558 
         3064.7           565.8 
           3065           588.2 
         3065.3           609.6 
         3065.6           618.8 
         3065.9           613.7 
         3066.2           601.8 
         3066.5           598.4 
         3066.8           624.4 
         3067.1             705 
         3067.4           867.1 
         3067.7            1130 
           3068            1492 
         3068.3            1915 
         3068.6            2320 
         3068.9            2616 
         3069.2            2731 
         3069.5            2650 
         3069.8            2422 
         3070.1            2138 
         3070.4            1883 
         3070.7            1705 
           3071            1606 
         3071.3            1560 
         3071.6            1534 
         3071.9            1506 
         3072.2            1471 
         3072.5            1432 
         3072.8            1397 
         3073.1            1370 
         3073.4            1353 
         3073.7            1339 
           3074            1322 
         3074.3            1297 
         3074.6            1270 
         3074.9            1269 
         3075.2            1333 
         3075.5            1500 
         3075.8            1778 
         3076.1            2121 
         3076.4            2447 
         3076.7            2659 
           3077            2693 
         3077.3            2543 
         3077.6            2260 
         3077.9            1927 
         3078.2            1628 
         3078.5            1416 
         3078.8            1311 
         3079.1            1294 
         3079.4            1327 
         3079.7            1361 
           3080            1356 
         3080.3            1293 
         3080.6            1180 
         3080.9            1047 
         3081.2           934.1 
         3081.5           872.3 
         3081.8           874.4 
         3082.1           931.6 
         3082.4            1020 
         3082.7            1115 
           3083            1208 
         3083.3            1315 
         3083.6            1473 
         3083.9            1724 
         3084.2            2089 
         3084.5            2547 
         3084.8            3030 
         3085.1            3440 
         3085.4            3685 
         3085.7            3723 
           3086            3581 
         3086.3            3337 
         3086.6            3076 
         3086.9            2853 
         3087.2            2684 
         3087.5            2565 
         3087.8            2483 
         3088.1            2422 
         3088.4            2362 
         3088.7            2289 
           3089            2213 
         3089.3            2169 
         3089.6            2192 
         3089.9            2280 
         3090.2            2375 
         3090.5            2392 
         3090.8            2262 
         3091.1            1976 
         3091.4            1594 
         3091.7            1204 
           3092           889.8 
         3092.3           699.1 
         3092.6             642 
         3092.9           699.4 
         3093.2             835 
         3093.5            1004 
         3093.8            1164 
         3094.1            1281 
         3094.4            1340 
         3094.7            1350 
           3095            1337 
         3095.3            1332 
         3095.6            1355 
         3095.9            1415 
         3096.2            1509 
         3096.5            1640 
         3096.8            1811 
         3097.1            2019 
         3097.4            2233 
         3097.7            2392 
           3098            2426 
         3098.3            2294 
         3098.6            2004 
         3098.9            1615 
         3099.2            1209 
         3099.5           853.9 
         3099.8           587.9 
         3100.1             415 
         3100.4           318.2 
         3100.7           276.5 
           3101             279 
         3101.3           446.8 
         3101.6           649.5 
         3101.9           942.9 
         3102.2            1307 
         3102.5            1698 
         3102.8            2066 
         3103.1            2376 
         3103.4            2616 
         3103.7            2786 
           3104            2881 
         3104.3            2871 
         3104.6            2726 
         3104.9            2445 
         3105.2            2067 
         3105.5            1672 
         3105.8            1341 
         3106.1            1142 
         3106.4            1108 
         3106.7            1256 
           3107            1596 
         3107.3            2143 
         3107.6            2902 
         3107.9            3839 
         3108.2            4849 
         3108.5            5760 
         3108.8            6376 
         3109.1            6569 
         3109.4            6356 
         3109.7            5903 
           3110            5451 
         3110.3            5198 
         3110.6            5202 
         3110.9            5366 
         3111.2            5498 
         3111.5            5420 
         3111.8            5053 
         3112.1            4446 
         3112.4            3735 
         3112.7            3085 
           3113            2639 
         3113.3            2488 
         3113.6            2662 
         3113.9            3131 
         3114.2            3810 
         3114.5            4577 
         3114.8            5299 
         3115.1            5846 
         3115.4            6121 
         3115.7            6058 
           3116            5656 
         3116.3            4981 
         3116.6            4159 
         3116.9            3336 
         3117.2            2638 
         3117.5            2137 
         3117.8            1850 
         3118.1            1741 
         3118.4            1749 
         3118.7            1813 
           3119            1896 
         3119.3            1989 
         3119.6            2106 
         3119.9            2246 
         3120.2            2392 
         3120.5            2515 
         3120.8            2604 
         3121.1            2690 
         3121.4            2849 
         3121.7            3180 
           3122            3763 
         3122.3            4630 
         3122.6            5732 
         3122.9            6932 
         3123.2            8013 
         3123.5            8737 
         3123.8            8935 
         3124.1            8588 
         3124.4            7849 
         3124.7            6979 
           3125            6228 
         3125.3            5731 
         3125.6            5488 
         3125.9            5395 
         3126.2            5324 
         3126.5            5181 
         3126.8            4935 
         3127.1            4607 
         3127.4            4244 
         3127.7            3893 
           3128            3585 
         3128.3            3334 
         3128.6            3148 
         3128.9            3019 
         3129.2            2921 
         3129.5            2816 
         3129.8            2679 
         3130.1            2524 
         3130.4            2388 
         3130.7            2318 
           3131            2334 
         3131.3            2416 
         3131.6            2510 
         3131.9            2553 
         3132.2            2497 
         3132.5            2330 
         3132.8            2083 
         3133.1            1827 
         3133.4            1654 
         3133.7            1637 
           3134            1807 
         3134.3            2127 
         3134.6            2502 
         3134.9            2830 
         3135.2            3044 
         3135.5            3148 
         3135.8            3214 
         3136.1            3338 
         3136.4            3595 
         3136.7            4023 
           3137            4622 
         3137.3            5375 
         3137.6            6245 
         3137.9            7179 
         3138.2            8083 
         3138.5            8824 
         3138.8            9259 
         3139.1            9308 
         3139.4            9016 
         3139.7            8556 
           3140            8132 
         3140.3            7851 
         3140.6            7660 
         3140.9            7399 
         3141.2            6930 
         3141.5            6238 
         3141.8            5434 
         3142.1            4663 
         3142.4            4025 
         3142.7            3549 
           3143            3223 
         3143.3            3031 
         3143.6            2962 
         3143.9            3005 
         3144.2            3139 
         3144.5            3352 
         3144.8            3660 
         3145.1            4078 
         3145.4            4598 
         3145.7            5146 
           3146            5606 
         3146.3            5867 
         3146.6            5891 
         3146.9            5736 
         3147.2            5548 
         3147.5            5523 
         3147.8            5864 
         3148.1            6725 
         3148.4            8154 
         3148.7           10070 
           3149           12260 
         3149.3           14420 
         3149.6           16230 
         3149.9           17370 
         3150.2           17590 
         3150.5           16810 
         3150.8           15160 
         3151.1           12950 
         3151.4           10550 
         3151.7            8323 
           3152            6503 
         3152.3            5162 
         3152.6            4258 
         3152.9            3677 
         3153.2            3294 
         3153.5            3009 
         3153.8            2773 
         3154.1            2596 
         3154.4            2516 
         3154.7            2574 
           3155            2784 
         3155.3            3128 
         3155.6            3555 
         3155.9            3987 
         3156.2            4338 
         3156.5            4547 
         3156.8            4601 
         3157.1            4545 
         3157.4            4462 
         3157.7            4432 
           3158            4510 
         3158.3            4708 
         3158.6            4988 
         3158.9            5260 
         3159.2            5398 
         3159.5            5297 
         3159.8            4911 
         3160.1            4300 
         3160.4            3593 
         3160.7            2952 
           3161            2518 
         3161.3            2382 
         3161.6            2583 
         3161.9            3101 
         3162.2            3860 
         3162.5            4724 
         3162.8            5524 
         3163.1            6097 
         3163.4            6346 
         3163.7            6259 
           3164            5902 
         3164.3            5384 
         3164.6            4835 
         3164.9            4384 
         3165.2            4143 
         3165.5            4181 
         3165.8            4498 
         3166.1            5020 
         3166.4            5612 
         3166.7            6122 
           3167            6426 
         3167.3            6466 
         3167.6            6270 
         3167.9            5941 
         3168.2            5620 
         3168.5            5429 
         3168.8            5438 
         3169.1            5659 
         3169.4            6083 
         3169.7            6719 
           3170            7582 
         3170.3            8671 
         3170.6            9946 
         3170.9           11320 
         3171.2           12700 
         3171.5           13920 
         3171.8           14820 
         3172.1           15300 
         3172.4           15380 
         3172.7           15310 
           3173           15420 
         3173.3           15940 
         3173.6           16860 
         3173.9           17880 
         3174.2           18630 
         3174.5           19010 
         3174.8           19210 
         3175.1           19560 
         3175.4           20280 
         3175.7           21240 
           3176           22020 
         3176.3           22180 
         3176.6           21420 
         3176.9           19800 
         3177.2           17670 
         3177.5           15480 
         3177.8           13560 
         3178.1           12030 
