# Granada HRES Library
# atmosphere = Phoenix  (atmosphere model used)
# feh = -5  (value for [Fe/H] for the model.)
# logg = 5 log(cm/s2) (value for Log(G) for the model.)
# teff = 3000 K (value for the effective temperature for the model. Temperatures are given in K)
#
# column 1: WAVELENGTH (ANGSTROM), Wavelength in Angstrom
# column 2: FLUX (ERG/CM2/S/A), Flux in erg/cm2/s/A
         3000.2           5.002 
         3000.5           4.332 
         3000.8           3.824 
         3001.1           3.501 
         3001.4           3.339 
         3001.7           3.288 
           3002           3.328 
         3002.3            3.52 
         3002.6           4.011 
         3002.9           5.002 
         3003.2           6.681 
         3003.5           9.136 
         3003.8            12.3 
         3004.1           15.92 
         3004.4           19.59 
         3004.7           22.85 
           3005           25.26 
         3005.3           26.45 
         3005.6           26.21 
         3005.9           24.57 
         3006.2           21.77 
         3006.5           18.21 
         3006.8           14.49 
         3007.1           11.11 
         3007.4           8.515 
         3007.7           6.937 
           3008           6.452 
         3008.3           7.025 
         3008.6           8.591 
         3008.9           11.09 
         3009.2           14.44 
         3009.5           18.47 
         3009.8           22.82 
         3010.1           26.89 
         3010.4           30.04 
         3010.7           31.73 
           3011           31.87 
         3011.3           30.89 
         3011.6            29.6 
         3011.9           28.84 
         3012.2           29.13 
         3012.5           30.44 
         3012.8            32.3 
         3013.1           34.06 
         3013.4            35.1 
         3013.7            35.1 
           3014           34.04 
         3014.3           32.13 
         3014.6           29.79 
         3014.9           27.41 
         3015.2           25.21 
         3015.5           23.24 
         3015.8           21.39 
         3016.1           19.52 
         3016.4           17.56 
         3016.7           15.54 
           3017           13.52 
         3017.3           11.63 
         3017.6           9.989 
         3017.9           8.629 
         3018.2           7.518 
         3018.5           6.561 
         3018.8           5.664 
         3019.1           4.777 
         3019.4           3.905 
         3019.7           3.096 
           3020           2.414 
         3020.3           1.927 
         3020.6           1.695 
         3020.9           1.761 
         3021.2            2.14 
         3021.5           2.806 
         3021.8           3.684 
         3022.1           4.653 
         3022.4           5.562 
         3022.7           6.271 
           3023           6.684 
         3023.3           6.801 
         3023.6           6.708 
         3023.9           6.535 
         3024.2           6.385 
         3024.5           6.294 
         3024.8           6.247 
         3025.1           6.276 
         3025.4           6.528 
         3025.7           7.284 
           3026           8.857 
         3026.3           11.48 
         3026.6           15.17 
         3026.9           19.77 
         3027.2           24.92 
         3027.5           30.23 
         3027.8           35.37 
         3028.1           40.14 
         3028.4           44.47 
         3028.7           48.36 
           3029           51.76 
         3029.3           54.48 
         3029.6           56.23 
         3029.9            56.7 
         3030.2           55.73 
         3030.5           53.53 
         3030.8           50.72 
         3031.1           48.34 
         3031.4            47.5 
         3031.7           48.98 
           3032           52.76 
         3032.3           57.92 
         3032.6           62.95 
         3032.9           66.32 
         3033.2           67.09 
         3033.5            65.2 
         3033.8           61.35 
         3034.1           56.55 
         3034.4           51.67 
         3034.7           47.06 
           3035           42.63 
         3035.3           38.02 
         3035.6           33.01 
         3035.9           27.59 
         3036.2           22.12 
         3036.5           17.07 
         3036.8           12.97 
         3037.1           10.19 
         3037.4           9.016 
         3037.7           9.555 
           3038           11.73 
         3038.3           15.25 
         3038.6           19.64 
         3038.9           24.29 
         3039.2           28.53 
         3039.5           31.86 
         3039.8           34.01 
         3040.1           35.07 
         3040.4           35.33 
         3040.7            35.1 
           3041           34.61 
         3041.3           34.02 
         3041.6           33.58 
         3041.9           33.54 
         3042.2           34.08 
         3042.5           35.09 
         3042.8           36.24 
         3043.1           37.13 
         3043.4           37.48 
         3043.7           37.26 
           3044           36.58 
         3044.3           35.55 
         3044.6           34.19 
         3044.9           32.51 
         3045.2           30.43 
         3045.5           27.89 
         3045.8           24.85 
         3046.1           21.38 
         3046.4           17.66 
         3046.7           14.04 
           3047           10.94 
         3047.3           8.695 
         3047.6           7.545 
         3047.9           7.534 
         3048.2           8.539 
         3048.5           10.28 
         3048.8           12.35 
         3049.1           14.28 
         3049.4           15.64 
         3049.7           16.21 
           3050           16.11 
         3050.3           15.81 
         3050.6           15.95 
         3050.9           17.13 
         3051.2           19.69 
         3051.5           23.55 
         3051.8           28.19 
         3052.1           32.84 
         3052.4           36.53 
         3052.7           38.42 
           3053           38.11 
         3053.3           35.87 
         3053.6           32.61 
         3053.9           29.56 
         3054.2           27.82 
         3054.5           27.86 
         3054.8           29.41 
         3055.1           31.64 
         3055.4           33.45 
         3055.7           33.93 
           3056           32.67 
         3056.3           29.76 
         3056.6           25.71 
         3056.9           21.18 
         3057.2           16.83 
         3057.5            13.1 
         3057.8           10.21 
         3058.1           8.171 
         3058.4            6.95 
         3058.7           6.533 
           3059           6.989 
         3059.3           8.433 
         3059.6           10.95 
         3059.9           14.51 
         3060.2           18.98 
         3060.5           24.14 
         3060.8            29.8 
         3061.1           35.79 
         3061.4           41.98 
         3061.7            48.1 
           3062           53.52 
         3062.3           57.31 
         3062.6           58.48 
         3062.9           56.51 
         3063.2           51.73 
         3063.5           45.33 
         3063.8           39.02 
         3064.1           34.39 
         3064.4           32.38 
         3064.7           32.91 
           3065           35.01 
         3065.3           37.25 
         3065.6           38.36 
         3065.9           37.77 
         3066.2           35.73 
         3066.5           33.09 
         3066.8           30.86 
         3067.1           29.88 
         3067.4           30.63 
         3067.7           33.18 
           3068           37.25 
         3068.3           42.25 
         3068.6            47.5 
         3068.9           52.44 
         3069.2           56.96 
         3069.5           61.41 
         3069.8            66.5 
         3070.1           72.83 
         3070.4           80.43 
         3070.7           88.64 
           3071           96.46 
         3071.3           103.3 
         3071.6           109.3 
         3071.9           115.5 
         3072.2           122.4 
         3072.5           129.7 
         3072.8           135.5 
         3073.1           137.7 
         3073.4           135.1 
         3073.7           128.2 
           3074           118.5 
         3074.3           107.8 
         3074.6            97.5 
         3074.9           88.39 
         3075.2            81.3 
         3075.5            77.1 
         3075.8           76.32 
         3076.1            78.6 
         3076.4           82.55 
         3076.7           86.23 
           3077           87.94 
         3077.3           86.88 
         3077.6            83.2 
         3077.9           77.72 
         3078.2           71.37 
         3078.5            64.8 
         3078.8           58.24 
         3079.1           51.65 
         3079.4           44.93 
         3079.7           38.13 
           3080           31.46 
         3080.3            25.2 
         3080.6           19.62 
         3080.9           14.93 
         3081.2           11.22 
         3081.5           8.522 
         3081.8           6.837 
         3082.1           6.136 
         3082.4           6.386 
         3082.7           7.549 
           3083           9.582 
         3083.3           12.42 
         3083.6           15.94 
         3083.9           19.97 
         3084.2            24.3 
         3084.5           28.71 
         3084.8           33.04 
         3085.1            37.1 
         3085.4           40.64 
         3085.7           43.39 
           3086           45.25 
         3086.3           46.46 
         3086.6            47.5 
         3086.9           48.93 
         3087.2           51.01 
         3087.5           53.49 
         3087.8            55.7 
         3088.1           56.74 
         3088.4           55.88 
         3088.7           52.84 
           3089           47.89 
         3089.3           41.73 
         3089.6           35.24 
         3089.9           29.15 
         3090.2           23.88 
         3090.5           19.49 
         3090.8           15.84 
         3091.1           12.74 
         3091.4           10.09 
         3091.7           7.881 
           3092           6.173 
         3092.3           5.067 
         3092.6           4.656 
         3092.9           4.995 
         3093.2           6.086 
         3093.5           7.859 
         3093.8           10.19 
         3094.1            12.9 
         3094.4           15.82 
         3094.7           18.76 
           3095           21.56 
         3095.3           24.07 
         3095.6           26.26 
         3095.9           28.24 
         3096.2            30.3 
         3096.5           32.87 
         3096.8           36.22 
         3097.1           40.19 
         3097.4           44.06 
         3097.7           46.69 
           3098           47.02 
         3098.3           44.57 
         3098.6           39.71 
         3098.9           33.47 
         3099.2           27.13 
         3099.5           21.75 
         3099.8           17.87 
         3100.1           15.51 
         3100.4           14.32 
         3100.7           13.98 
           3101           14.44 
         3101.3           19.46 
         3101.6           25.46 
         3101.9           34.55 
         3102.2           46.79 
         3102.5           61.67 
         3102.8           78.11 
         3103.1           94.45 
         3103.4           108.6 
         3103.7           118.5 
           3104           122.3 
         3104.3           119.6 
         3104.6           111.4 
         3104.9           100.2 
         3105.2           89.38 
         3105.5           81.67 
         3105.8           78.79 
         3106.1           80.81 
         3106.4           86.64 
         3106.7           94.77 
           3107           103.8 
         3107.3           112.6 
         3107.6           120.5 
         3107.9           127.3 
         3108.2           133.9 
         3108.5           142.6 
         3108.8           155.9 
         3109.1           175.7 
         3109.4           202.1 
         3109.7           231.8 
           3110           259.8 
         3110.3           280.4 
         3110.6           288.9 
         3110.9           284.1 
         3111.2             268 
         3111.5           245.2 
         3111.8           220.7 
         3112.1           198.7 
         3112.4           181.2 
         3112.7           169.5 
           3113           164.9 
         3113.3           169.9 
         3113.6           186.6 
         3113.9             216 
         3114.2           255.2 
         3114.5           297.6 
         3114.8           334.5 
         3115.1           356.7 
         3115.4           358.6 
         3115.7           339.5 
           3116           304.8 
         3116.3             264 
         3116.6           228.8 
         3116.9           209.4 
         3117.2           211.5 
         3117.5           235.4 
         3117.8           275.4 
         3118.1           321.4 
         3118.4             363 
         3118.7           392.7 
           3119           408.8 
         3119.3           414.1 
         3119.6           412.9 
         3119.9           407.9 
         3120.2           398.4 
         3120.5           381.7 
         3120.8           356.2 
         3121.1           323.9 
         3121.4           289.7 
         3121.7           260.1 
           3122           240.2 
         3122.3           232.2 
         3122.6           234.5 
         3122.9           243.8 
         3123.2           256.5 
         3123.5           269.9 
         3123.8           282.6 
         3124.1           294.3 
         3124.4           304.6 
         3124.7           313.9 
           3125           323.4 
         3125.3           335.1 
         3125.6           350.9 
         3125.9           370.4 
         3126.2           390.9 
         3126.5           406.7 
         3126.8           411.4 
         3127.1           401.2 
         3127.4           376.6 
         3127.7           343.3 
           3128           308.7 
         3128.3           279.9 
         3128.6           260.3 
         3128.9           250.8 
         3129.2           250.2 
         3129.5           257.4 
         3129.8           271.3 
         3130.1           290.1 
         3130.4           310.8 
         3130.7           328.9 
           3131             339 
         3131.3             337 
         3131.6           321.4 
         3131.9           293.4 
         3132.2           256.3 
         3132.5           214.9 
         3132.8           174.1 
         3133.1           139.2 
         3133.4           114.6 
         3133.7           103.4 
           3134           106.4 
         3134.3           121.5 
         3134.6           143.9 
         3134.9           167.6 
         3135.2           187.1 
         3135.5           200.1 
         3135.8           207.8 
         3136.1           215.2 
         3136.4           228.9 
         3136.7           255.5 
           3137           297.8 
         3137.3           353.3 
         3137.6           413.6 
         3137.9           466.7 
         3138.2           500.7 
         3138.5           508.7 
         3138.8           491.7 
         3139.1           456.7 
         3139.4             414 
         3139.7           373.7 
           3140           343.3 
         3140.3           326.5 
         3140.6           323.7 
         3140.9           332.4 
         3141.2           347.6 
         3141.5           362.6 
         3141.8           371.3 
         3142.1           369.3 
         3142.4             356 
         3142.7           335.2 
           3143           314.6 
         3143.3           301.7 
         3143.6           300.6 
         3143.9           310.1 
         3144.2           324.7 
         3144.5           337.9 
         3144.8           346.6 
         3145.1           351.1 
         3145.4           353.3 
         3145.7           354.3 
           3146           354.2 
         3146.3             354 
         3146.6           358.5 
         3146.9           374.8 
         3147.2           408.3 
         3147.5           458.7 
         3147.8           517.6 
         3148.1             572 
         3148.4           608.4 
         3148.7           618.1 
           3149           599.6 
         3149.3           557.6 
         3149.6             501 
         3149.9           440.6 
         3150.2           386.5 
         3150.5           347.9 
         3150.8           331.2 
         3151.1           338.7 
         3151.4             368 
         3151.7           412.5 
           3152           462.6 
         3152.3           508.3 
         3152.6           541.6 
         3152.9           558.8 
         3153.2           561.2 
         3153.5           555.8 
         3153.8           553.4 
         3154.1           565.4 
         3154.4           598.7 
         3154.7           652.9 
           3155           719.8 
         3155.3           787.2 
         3155.6           843.9 
         3155.9           883.4 
         3156.2           904.8 
         3156.5           911.1 
         3156.8           907.6 
         3157.1           898.3 
         3157.4           885.6 
         3157.7           870.3 
           3158           854.2 
         3158.3             840 
         3158.6           830.7 
         3158.9           826.8 
         3159.2           824.7 
         3159.5           819.2 
         3159.8           807.7 
         3160.1           792.8 
         3160.4           782.2 
         3160.7           784.6 
           3161           804.4 
         3161.3           840.1 
         3161.6           885.1 
         3161.9           930.8 
         3162.2           969.7 
         3162.5           996.4 
         3162.8            1007 
         3163.1            1001 
         3163.4           978.1 
         3163.7           942.5 
           3164           900.3 
         3164.3           859.5 
         3164.6           828.8 
         3164.9           817.2 
         3165.2             834 
         3165.5           885.8 
         3165.8           972.6 
         3166.1            1086 
         3166.4            1208 
         3166.7            1317 
           3167            1392 
         3167.3            1420 
         3167.6            1398 
         3167.9            1337 
         3168.2            1258 
         3168.5            1187 
         3168.8            1146 
         3169.1            1144 
         3169.4            1177 
         3169.7            1228 
           3170            1275 
         3170.3            1308 
         3170.6            1324 
         3170.9            1334 
         3171.2            1348 
         3171.5            1373 
         3171.8            1406 
         3172.1            1442 
         3172.4            1474 
         3172.7            1500 
           3173            1522 
         3173.3            1545 
         3173.6            1571 
         3173.9            1596 
         3174.2            1611 
         3174.5            1612 
         3174.8            1601 
         3175.1            1586 
         3175.4            1576 
         3175.7            1573 
           3176            1572 
         3176.3            1565 
         3176.6            1541 
         3176.9            1497 
         3177.2            1443 
         3177.5            1389 
         3177.8            1346 
         3178.1            1311 
