# Granada HRES Library
# atmosphere = Phoenix  (atmosphere model used)
# feh = -10  (value for [Fe/H] for the model.)
# logg = 5 log(cm/s2) (value for Log(G) for the model.)
# teff = 4500 K (value for the effective temperature for the model. Temperatures are given in K)
#
# column 1: WAVELENGTH (ANGSTROM), Wavelength in Angstrom
# column 2: FLUX (ERG/CM2/S/A), Flux in erg/cm2/s/A
         3000.2           29200 
         3000.5           28070 
         3000.8           27210 
         3001.1           26660 
         3001.4           26290 
         3001.7           25860 
           3002           25280 
         3002.3           24740 
         3002.6           24780 
         3002.9           26060 
         3003.2           29020 
         3003.5           33730 
         3003.8           39790 
         3004.1           46470 
         3004.4           52940 
         3004.7           58510 
           3005           62710 
         3005.3           65200 
         3005.6           65720 
         3005.9           64090 
         3006.2           60360 
         3006.5           54940 
         3006.8           48650 
         3007.1           42440 
         3007.4           37260 
         3007.7           33710 
           3008           32060 
         3008.3           32180 
         3008.6           33830 
         3008.9           36680 
         3009.2           40500 
         3009.5           45080 
         3009.8           50010 
         3010.1           54620 
         3010.4           58020 
         3010.7           59610 
           3011           59320 
         3011.3           57890 
         3011.6           56490 
         3011.9           56280 
         3012.2           57720 
         3012.5           60430 
         3012.8           63360 
         3013.1           65390 
         3013.4           65830 
         3013.7           64590 
           3014           62080 
         3014.3           58980 
         3014.6           55860 
         3014.9           53100 
         3015.2           50830 
         3015.5           49050 
         3015.8           47710 
         3016.1           46720 
         3016.4           45960 
         3016.7           45210 
           3017           44280 
         3017.3           43100 
         3017.6           41710 
         3017.9           40200 
         3018.2           38580 
         3018.5           36800 
         3018.8           34750 
         3019.1           32320 
         3019.4           29530 
         3019.7           26500 
           3020           23540 
         3020.3           21100 
         3020.6           19740 
         3020.9           19860 
         3021.2           21600 
         3021.5           24700 
         3021.8           28560 
         3022.1           32470 
         3022.4           35680 
         3022.7           37620 
           3023           38080 
         3023.3           37240 
         3023.6           35660 
         3023.9           34000 
         3024.2           32790 
         3024.5           32160 
         3024.8           31880 
         3025.1           31740 
         3025.4           31820 
         3025.7           32610 
           3026           34800 
         3026.3           38830 
         3026.6           44710 
         3026.9           51900 
         3027.2           59570 
         3027.5           66920 
         3027.8           73270 
         3028.1           78130 
         3028.4           81150 
         3028.7           82140 
           3029           81160 
         3029.3           78530 
         3029.6           74810 
         3029.9           70610 
         3030.2           66500 
         3030.5           63070 
         3030.8           61010 
         3031.1           61140 
         3031.4           64160 
         3031.7           70180 
           3032           78310 
         3032.3           86790 
         3032.6           93480 
         3032.9           96750 
         3033.2           96100 
         3033.5           92330 
         3033.8           87100 
         3034.1           82180 
         3034.4           78650 
         3034.7           76480 
           3035           74810 
         3035.3           72500 
         3035.6           68780 
         3035.9           63500 
         3036.2           57140 
         3036.5           50530 
         3036.8           44640 
         3037.1           40390 
         3037.4           38340 
         3037.7           38700 
           3038           41150 
         3038.3           44990 
         3038.6           49360 
         3038.9           53380 
         3039.2           56330 
         3039.5           57760 
         3039.8           57480 
         3040.1           55630 
         3040.4           52600 
         3040.7           48960 
           3041           45380 
         3041.3           42560 
         3041.6           41180 
         3041.9           41800 
         3042.2           44620 
         3042.5           49260 
         3042.8           54930 
         3043.1           60540 
         3043.4           65130 
         3043.7           68130 
           3044           69440 
         3044.3           69320 
         3044.6           68260 
         3044.9           66710 
         3045.2           64960 
         3045.5           62950 
         3045.8           60380 
         3046.1           56940 
         3046.4           52590 
         3046.7           47710 
           3047           43060 
         3047.3           39480 
         3047.6           37680 
         3047.9           37960 
         3048.2           40180 
         3048.5           43800 
         3048.8           47990 
         3049.1           51810 
         3049.4           54500 
         3049.7           55700 
           3050           55670 
         3050.3           55310 
         3050.6           55800 
         3050.9           58100 
         3051.2           62450 
         3051.5           68240 
         3051.8           74150 
         3052.1           78640 
         3052.4           80460 
         3052.7           79060 
           3053           74810 
         3053.3           68790 
         3053.6           62490 
         3053.9           57370 
         3054.2           54450 
         3054.5           54140 
         3054.8           56070 
         3055.1           59280 
         3055.4           62440 
         3055.7           64250 
           3056           63850 
         3056.3           61020 
         3056.6           56240 
         3056.9           50480 
         3057.2           44800 
         3057.5           40050 
         3057.8           36590 
         3058.1           34410 
         3058.4           33360 
         3058.7           33410 
           3059           34790 
         3059.3           37730 
         3059.6           42280 
         3059.9           48060 
         3060.2           54380 
         3060.5           60420 
         3060.8           65560 
         3061.1           69490 
         3061.4           72240 
         3061.7           73900 
           3062           74410 
         3062.3           73400 
         3062.6           70390 
         3062.9           65240 
         3063.2           58490 
         3063.5           51220 
         3063.8           44790 
         3064.1           40260 
         3064.4           37970 
         3064.7           37560 
           3065           38160 
         3065.3           38800 
         3065.6           38800 
         3065.9           37930 
         3066.2           36410 
         3066.5           34720 
         3066.8           33380 
         3067.1           32740 
         3067.4           33020 
         3067.7           34250 
           3068           36340 
         3068.3           39070 
         3068.6           42100 
         3068.9           45060 
         3069.2           47680 
         3069.5           50010 
         3069.8           52530 
         3070.1           55960 
         3070.4           60780 
         3070.7           66880 
           3071           73370 
         3071.3           79070 
         3071.6           83220 
         3071.9           85890 
         3072.2           87870 
         3072.5           89900 
         3072.8           92060 
         3073.1           93710 
         3073.4           93950 
         3073.7           92260 
           3074           88790 
         3074.3           84230 
         3074.6           79450 
         3074.9           75410 
         3075.2           73090 
         3075.5           73320 
         3075.8           76490 
         3076.1           82180 
         3076.4           89170 
         3076.7           95740 
           3077          100300 
         3077.3          101700 
         3077.6           99990 
         3077.9           96190 
         3078.2           91600 
         3078.5           87460 
         3078.8           84170 
         3079.1           81290 
         3079.4           77980 
         3079.7           73710 
           3080           68440 
         3080.3           62620 
         3080.6           56800 
         3080.9           51460 
         3081.2           46950 
         3081.5           43530 
         3081.8           41390 
         3082.1           40540 
         3082.4           40800 
         3082.7           41890 
           3083           43560 
         3083.3           45750 
         3083.6           48490 
         3083.9           51680 
         3084.2           55100 
         3084.5           58470 
         3084.8           61620 
         3085.1           64480 
         3085.4           66840 
         3085.7           68310 
           3086           68550 
         3086.3           67650 
         3086.6           66350 
         3086.9           65750 
         3087.2           66820 
         3087.5           69860 
         3087.8           74230 
         3088.1           78480 
         3088.4           80870 
         3088.7           80100 
           3089           75900 
         3089.3           69130 
         3089.6           61330 
         3089.9           54030 
         3090.2           48150 
         3090.5           43830 
         3090.8           40680 
         3091.1           38140 
         3091.4           35740 
         3091.7           33330 
           3092           31100 
         3092.3           29570 
         3092.6           29390 
         3092.9           30990 
         3093.2           34310 
         3093.5           38720 
         3093.8           43260 
         3094.1           46990 
         3094.4           49300 
         3094.7           50030 
           3095           49360 
         3095.3           47730 
         3095.6           45640 
         3095.9           43710 
         3096.2           42560 
         3096.5           42720 
         3096.8           44400 
         3097.1           47270 
         3097.4           50470 
         3097.7           52850 
           3098           53470 
         3098.3           51950 
         3098.6           48590 
         3098.9           44230 
         3099.2           39890 
         3099.5           36480 
         3099.8           34510 
         3100.1           34010 
         3100.4           34600 
         3100.7           35670 
           3101           36770 
         3101.3           39030 
         3101.6           41100 
         3101.9           44420 
         3102.2           49170 
         3102.5           55170 
         3102.8           61880 
         3103.1           68610 
         3103.4           74510 
         3103.7           78660 
           3104           80280 
         3104.3           78930 
         3104.6           74900 
         3104.9           69190 
         3105.2           63240 
         3105.5           58500 
         3105.8           55910 
         3106.1           55650 
         3106.4           57280 
         3106.7           60080 
           3107           63270 
         3107.3           66270 
         3107.6           68650 
         3107.9           70230 
         3108.2           71150 
         3108.5           72000 
         3108.8           73650 
         3109.1           77010 
         3109.4           82470 
         3109.7           89650 
           3110           97490 
         3110.3          104500 
         3110.6          109400 
         3110.9          111200 
         3111.2          110200 
         3111.5          107400 
         3111.8          104300 
         3112.1          102000 
         3112.4          101600 
         3112.7          103600 
           3113          109000 
         3113.3          119200 
         3113.6          135600 
         3113.9          158800 
         3114.2          186900 
         3114.5          215700 
         3114.8          238800 
         3115.1          249600 
         3115.4          244800 
         3115.7          224700 
           3116          193800 
         3116.3          159000 
         3116.6          127200 
         3116.9          103100 
         3117.2           88990 
         3117.5           84190 
         3117.8           86470 
         3118.1           92670 
         3118.4           99830 
         3118.7          106000 
           3119          111000 
         3119.3          115700 
         3119.6          121400 
         3119.9          128400 
         3120.2          135100 
         3120.5          138600 
         3120.8          136100 
         3121.1          127100 
         3121.4          113100 
         3121.7           97650 
           3122           84420 
         3122.3           75860 
         3122.6           72760 
         3122.9           74440 
         3123.2           79400 
         3123.5           85840 
         3123.8           92070 
         3124.1           96990 
         3124.4          100200 
         3124.7          102500 
           3125          105200 
         3125.3          110100 
         3125.6          118400 
         3125.9          130300 
         3126.2          143900 
         3126.5          156000 
         3126.8          162400 
         3127.1          160100 
         3127.4          149000 
         3127.7          132200 
           3128          114100 
         3128.3           99060 
         3128.6           88980 
         3128.9           83720 
         3129.2           81780 
         3129.5           81610 
         3129.8           82400 
         3130.1           84260 
         3130.4           87570 
         3130.7           92350 
           3131           97830 
         3131.3          102500 
         3131.6          104800 
         3131.9          103600 
         3132.2           98950 
         3132.5           91590 
         3132.8           83100 
         3133.1           75450 
         3133.4           70610 
         3133.7           70260 
           3134           75250 
         3134.3           84960 
         3134.6           97160 
         3134.9          108500 
         3135.2          116000 
         3135.5          118000 
         3135.8          115400 
         3136.1          110900 
         3136.4          108300 
         3136.7          110500 
           3137          119200 
         3137.3          133500 
         3137.6          150400 
         3137.9          166000 
         3138.2          176100 
         3138.5          178700 
         3138.8          173500 
         3139.1          162700 
         3139.4          149100 
         3139.7          135600 
           3140          124800 
         3140.3          117600 
         3140.6          114000 
         3140.9          112800 
         3141.2          112400 
         3141.5          111600 
         3141.8          110000 
         3142.1          107500 
         3142.4          103900 
         3142.7           98990 
           3143           93160 
         3143.3           87310 
         3143.6           82830 
         3143.9           81060 
         3144.2           82840 
         3144.5           88390 
         3144.8           97230 
         3145.1          107900 
         3145.4          118200 
         3145.7          125200 
           3146          126700 
         3146.3          122700 
         3146.6          115800 
         3146.9          110400 
         3147.2          110600 
         3147.5          118400 
         3147.8          133100 
         3148.1          151400 
         3148.4          168300 
         3148.7          179100 
           3149          180800 
         3149.3          173100 
         3149.6          158500 
         3149.9          140800 
         3150.2          124200 
         3150.5          111500 
         3150.8          104600 
         3151.1          103500 
         3151.4          107400 
         3151.7          114300 
           3152          122300 
         3152.3          128900 
         3152.6          132300 
         3152.9          131700 
         3153.2          127800 
         3153.5          122300 
         3153.8          117700 
         3154.1          116400 
         3154.4          119200 
         3154.7          125200 
           3155          131800 
         3155.3          136400 
         3155.6          137300 
         3155.9          134600 
         3156.2          130000 
         3156.5          126100 
         3156.8          124900 
         3157.1          128000 
         3157.4          135300 
         3157.7          145900 
           3158          157900 
         3158.3          169300 
         3158.6          178200 
         3158.9          182800 
         3159.2          181700 
         3159.5          174700 
         3159.8          162900 
         3160.1          148500 
         3160.4          134800 
         3160.7          125100 
           3161          122000 
         3161.3          127000 
         3161.6          140200 
         3161.9          160200 
         3162.2          183900 
         3162.5          206800 
         3162.8          223600 
         3163.1          230000 
         3163.4          225100 
         3163.7          211500 
           3164          194300 
         3164.3          179200 
         3164.6          170000 
         3164.9          168400 
         3165.2          175200 
         3165.5          191200 
         3165.8          217100 
         3166.1          251700 
         3166.4          290800 
         3166.7          326500 
           3167          349700 
         3167.3          354100 
         3167.6          339300 
         3167.9          312400 
         3168.2          285000 
         3168.5          268500 
         3168.8          269500 
         3169.1          287000 
         3169.4          313800 
         3169.7          340200 
           3170          358700 
         3170.3          367500 
         3170.6          370600 
         3170.9          374900 
         3171.2          385400 
         3171.5          402800 
         3171.8          422300 
         3172.1          436000 
         3172.4          437900 
         3172.7          427500 
           3173          410000 
         3173.3          393900 
         3173.6          385800 
         3173.9          386800 
         3174.2          393400 
         3174.5          400700 
         3174.8          406200 
         3175.1          410500 
         3175.4          415300 
         3175.7          420300 
           3176          421900 
         3176.3          415300 
         3176.6          397100 
         3176.9          368600 
         3177.2          335200 
         3177.5          304700 
         3177.8          282500 
         3178.1          269200 
