# Granada HRES Library
# atmosphere = Spectrum  (atmosphere model used)
# feh = 0  (value for [Fe/H] for the model.)
# logg = 3 log(cm/s2) (value for Log(G) for the model.)
# teff = 7750 K (value for the effective temperature for the model. Temperatures are given in K)
#
# column 1: WAVELENGTH (ANGSTROM), Wavelength in Angstrom
# column 2: FLUX (ERG/CM2/S/A), Flux in erg/cm2/s/A
         3000.2        1.746e+7 
         3000.5        1.729e+7 
         3000.8        1.709e+7 
         3001.1        1.689e+7 
         3001.4        1.666e+7 
         3001.7        1.643e+7 
           3002        1.622e+7 
         3002.3        1.606e+7 
         3002.6          1.6e+7 
         3002.9        1.607e+7 
         3003.2        1.629e+7 
         3003.5        1.664e+7 
         3003.8         1.71e+7 
         3004.1        1.763e+7 
         3004.4        1.816e+7 
         3004.7        1.865e+7 
           3005        1.907e+7 
         3005.3        1.938e+7 
         3005.6        1.956e+7 
         3005.9        1.962e+7 
         3006.2        1.955e+7 
         3006.5        1.938e+7 
         3006.8        1.913e+7 
         3007.1        1.884e+7 
         3007.4        1.854e+7 
         3007.7        1.827e+7 
           3008        1.807e+7 
         3008.3        1.797e+7 
         3008.6        1.798e+7 
         3008.9         1.81e+7 
         3009.2        1.831e+7 
         3009.5        1.856e+7 
         3009.8        1.882e+7 
         3010.1        1.905e+7 
         3010.4         1.92e+7 
         3010.7        1.929e+7 
           3011         1.93e+7 
         3011.3        1.928e+7 
         3011.6        1.925e+7 
         3011.9        1.922e+7 
         3012.2        1.921e+7 
         3012.5        1.921e+7 
         3012.8        1.919e+7 
         3013.1        1.915e+7 
         3013.4        1.906e+7 
         3013.7         1.89e+7 
           3014        1.868e+7 
         3014.3        1.841e+7 
         3014.6        1.812e+7 
         3014.9        1.784e+7 
         3015.2         1.76e+7 
         3015.5        1.744e+7 
         3015.8        1.738e+7 
         3016.1         1.74e+7 
         3016.4         1.75e+7 
         3016.7        1.764e+7 
           3017        1.781e+7 
         3017.3        1.796e+7 
         3017.6        1.808e+7 
         3017.9        1.814e+7 
         3018.2        1.811e+7 
         3018.5          1.8e+7 
         3018.8         1.78e+7 
         3019.1        1.751e+7 
         3019.4        1.717e+7 
         3019.7        1.683e+7 
           3020        1.653e+7 
         3020.3        1.634e+7 
         3020.6        1.631e+7 
         3020.9        1.647e+7 
         3021.2        1.681e+7 
         3021.5        1.728e+7 
         3021.8        1.782e+7 
         3022.1        1.835e+7 
         3022.4         1.88e+7 
         3022.7        1.912e+7 
           3023        1.929e+7 
         3023.3        1.931e+7 
         3023.6        1.921e+7 
         3023.9        1.901e+7 
         3024.2        1.873e+7 
         3024.5        1.839e+7 
         3024.8        1.804e+7 
         3025.1        1.769e+7 
         3025.4         1.74e+7 
         3025.7        1.722e+7 
           3026        1.718e+7 
         3026.3        1.729e+7 
         3026.6        1.755e+7 
         3026.9        1.791e+7 
         3027.2        1.832e+7 
         3027.5        1.873e+7 
         3027.8        1.909e+7 
         3028.1        1.935e+7 
         3028.4        1.951e+7 
         3028.7        1.956e+7 
           3029        1.951e+7 
         3029.3        1.939e+7 
         3029.6        1.922e+7 
         3029.9        1.902e+7 
         3030.2        1.883e+7 
         3030.5        1.866e+7 
         3030.8        1.853e+7 
         3031.1        1.844e+7 
         3031.4        1.839e+7 
         3031.7        1.836e+7 
           3032        1.834e+7 
         3032.3         1.83e+7 
         3032.6        1.823e+7 
         3032.9        1.814e+7 
         3033.2        1.804e+7 
         3033.5        1.797e+7 
         3033.8        1.796e+7 
         3034.1        1.801e+7 
         3034.4        1.812e+7 
         3034.7        1.829e+7 
           3035        1.847e+7 
         3035.3        1.863e+7 
         3035.6        1.872e+7 
         3035.9        1.871e+7 
         3036.2        1.859e+7 
         3036.5        1.836e+7 
         3036.8        1.806e+7 
         3037.1        1.775e+7 
         3037.4        1.747e+7 
         3037.7        1.728e+7 
           3038        1.721e+7 
         3038.3        1.728e+7 
         3038.6        1.746e+7 
         3038.9        1.772e+7 
         3039.2        1.798e+7 
         3039.5         1.82e+7 
         3039.8        1.833e+7 
         3040.1        1.835e+7 
         3040.4        1.825e+7 
         3040.7        1.807e+7 
           3041        1.786e+7 
         3041.3        1.765e+7 
         3041.6        1.749e+7 
         3041.9        1.739e+7 
         3042.2        1.736e+7 
         3042.5        1.738e+7 
         3042.8        1.743e+7 
         3043.1        1.749e+7 
         3043.4        1.754e+7 
         3043.7        1.758e+7 
           3044        1.763e+7 
         3044.3        1.768e+7 
         3044.6        1.776e+7 
         3044.9        1.787e+7 
         3045.2          1.8e+7 
         3045.5        1.813e+7 
         3045.8        1.824e+7 
         3046.1        1.831e+7 
         3046.4        1.831e+7 
         3046.7        1.825e+7 
           3047        1.815e+7 
         3047.3        1.802e+7 
         3047.6         1.79e+7 
         3047.9         1.78e+7 
         3048.2        1.775e+7 
         3048.5        1.776e+7 
         3048.8        1.783e+7 
         3049.1        1.795e+7 
         3049.4        1.812e+7 
         3049.7        1.833e+7 
           3050        1.857e+7 
         3050.3        1.883e+7 
         3050.6        1.911e+7 
         3050.9        1.938e+7 
         3051.2        1.964e+7 
         3051.5        1.985e+7 
         3051.8        1.999e+7 
         3052.1        2.002e+7 
         3052.4        1.995e+7 
         3052.7        1.978e+7 
           3053        1.956e+7 
         3053.3        1.932e+7 
         3053.6        1.911e+7 
         3053.9        1.895e+7 
         3054.2        1.887e+7 
         3054.5        1.886e+7 
         3054.8        1.887e+7 
         3055.1        1.887e+7 
         3055.4        1.882e+7 
         3055.7        1.868e+7 
           3056        1.844e+7 
         3056.3        1.813e+7 
         3056.6        1.776e+7 
         3056.9        1.741e+7 
         3057.2         1.71e+7 
         3057.5        1.689e+7 
         3057.8        1.678e+7 
         3058.1        1.676e+7 
         3058.4        1.681e+7 
         3058.7         1.69e+7 
           3059        1.703e+7 
         3059.3         1.72e+7 
         3059.6        1.742e+7 
         3059.9        1.769e+7 
         3060.2        1.798e+7 
         3060.5        1.826e+7 
         3060.8         1.85e+7 
         3061.1        1.866e+7 
         3061.4        1.873e+7 
         3061.7        1.871e+7 
           3062        1.864e+7 
         3062.3        1.853e+7 
         3062.6        1.842e+7 
         3062.9        1.831e+7 
         3063.2        1.822e+7 
         3063.5        1.814e+7 
         3063.8        1.806e+7 
         3064.1        1.796e+7 
         3064.4        1.781e+7 
         3064.7         1.76e+7 
           3065        1.734e+7 
         3065.3        1.704e+7 
         3065.6        1.673e+7 
         3065.9        1.649e+7 
         3066.2        1.635e+7 
         3066.5        1.638e+7 
         3066.8         1.66e+7 
         3067.1        1.698e+7 
         3067.4         1.75e+7 
         3067.7         1.81e+7 
           3068        1.869e+7 
         3068.3        1.924e+7 
         3068.6        1.967e+7 
         3068.9        1.995e+7 
         3069.2        2.008e+7 
         3069.5        2.004e+7 
         3069.8        1.986e+7 
         3070.1        1.957e+7 
         3070.4        1.924e+7 
         3070.7        1.889e+7 
           3071         1.86e+7 
         3071.3        1.838e+7 
         3071.6        1.824e+7 
         3071.9         1.82e+7 
         3072.2        1.824e+7 
         3072.5        1.834e+7 
         3072.8        1.848e+7 
         3073.1        1.863e+7 
         3073.4        1.877e+7 
         3073.7        1.885e+7 
           3074        1.885e+7 
         3074.3        1.878e+7 
         3074.6        1.865e+7 
         3074.9         1.85e+7 
         3075.2        1.838e+7 
         3075.5        1.832e+7 
         3075.8        1.834e+7 
         3076.1        1.843e+7 
         3076.4        1.856e+7 
         3076.7        1.867e+7 
           3077        1.874e+7 
         3077.3        1.875e+7 
         3077.6        1.871e+7 
         3077.9        1.865e+7 
         3078.2         1.86e+7 
         3078.5        1.861e+7 
         3078.8         1.87e+7 
         3079.1        1.885e+7 
         3079.4        1.905e+7 
         3079.7        1.924e+7 
           3080        1.938e+7 
         3080.3        1.943e+7 
         3080.6        1.939e+7 
         3080.9        1.925e+7 
         3081.2        1.905e+7 
         3081.5        1.882e+7 
         3081.8        1.859e+7 
         3082.1        1.841e+7 
         3082.4        1.831e+7 
         3082.7        1.831e+7 
           3083        1.842e+7 
         3083.3        1.864e+7 
         3083.6        1.895e+7 
         3083.9        1.933e+7 
         3084.2        1.972e+7 
         3084.5        2.008e+7 
         3084.8        2.035e+7 
         3085.1        2.051e+7 
         3085.4        2.053e+7 
         3085.7        2.042e+7 
           3086         2.02e+7 
         3086.3        1.989e+7 
         3086.6        1.953e+7 
         3086.9        1.915e+7 
         3087.2         1.88e+7 
         3087.5         1.85e+7 
         3087.8        1.827e+7 
         3088.1        1.813e+7 
         3088.4        1.805e+7 
         3088.7        1.804e+7 
           3089        1.808e+7 
         3089.3        1.814e+7 
         3089.6        1.824e+7 
         3089.9        1.836e+7 
         3090.2        1.847e+7 
         3090.5        1.856e+7 
         3090.8         1.86e+7 
         3091.1        1.855e+7 
         3091.4         1.84e+7 
         3091.7        1.815e+7 
           3092        1.782e+7 
         3092.3        1.746e+7 
         3092.6        1.714e+7 
         3092.9        1.692e+7 
         3093.2        1.685e+7 
         3093.5        1.694e+7 
         3093.8        1.716e+7 
         3094.1        1.746e+7 
         3094.4        1.775e+7 
         3094.7        1.797e+7 
           3095        1.806e+7 
         3095.3        1.799e+7 
         3095.6         1.78e+7 
         3095.9        1.751e+7 
         3096.2         1.72e+7 
         3096.5        1.694e+7 
         3096.8         1.68e+7 
         3097.1         1.68e+7 
         3097.4        1.694e+7 
         3097.7        1.719e+7 
           3098        1.748e+7 
         3098.3        1.772e+7 
         3098.6        1.785e+7 
         3098.9        1.785e+7 
         3099.2         1.77e+7 
         3099.5        1.745e+7 
         3099.8        1.713e+7 
         3100.1        1.683e+7 
         3100.4        1.659e+7 
         3100.7        1.646e+7 
           3101        1.644e+7 
         3101.3        1.654e+7 
         3101.6        1.673e+7 
         3101.9        1.697e+7 
         3102.2        1.722e+7 
         3102.5        1.744e+7 
         3102.8        1.758e+7 
         3103.1        1.761e+7 
         3103.4        1.753e+7 
         3103.7        1.735e+7 
           3104         1.71e+7 
         3104.3        1.684e+7 
         3104.6        1.662e+7 
         3104.9        1.651e+7 
         3105.2        1.652e+7 
         3105.5        1.667e+7 
         3105.8        1.694e+7 
         3106.1        1.731e+7 
         3106.4        1.772e+7 
         3106.7        1.814e+7 
           3107        1.853e+7 
         3107.3        1.886e+7 
         3107.6         1.91e+7 
         3107.9        1.925e+7 
         3108.2        1.931e+7 
         3108.5        1.929e+7 
         3108.8        1.921e+7 
         3109.1        1.911e+7 
         3109.4        1.899e+7 
         3109.7         1.89e+7 
           3110        1.886e+7 
         3110.3        1.887e+7 
         3110.6        1.896e+7 
         3110.9        1.909e+7 
         3111.2        1.926e+7 
         3111.5        1.944e+7 
         3111.8         1.96e+7 
         3112.1        1.971e+7 
         3112.4        1.975e+7 
         3112.7        1.972e+7 
           3113        1.959e+7 
         3113.3         1.94e+7 
         3113.6        1.916e+7 
         3113.9        1.892e+7 
         3114.2        1.871e+7 
         3114.5        1.856e+7 
         3114.8        1.849e+7 
         3115.1        1.849e+7 
         3115.4        1.855e+7 
         3115.7        1.863e+7 
           3116        1.868e+7 
         3116.3        1.868e+7 
         3116.6         1.86e+7 
         3116.9        1.843e+7 
         3117.2        1.817e+7 
         3117.5        1.785e+7 
         3117.8         1.75e+7 
         3118.1        1.715e+7 
         3118.4        1.683e+7 
         3118.7        1.657e+7 
           3119        1.638e+7 
         3119.3        1.625e+7 
         3119.6        1.618e+7 
         3119.9        1.618e+7 
         3120.2        1.623e+7 
         3120.5        1.634e+7 
         3120.8        1.652e+7 
         3121.1        1.673e+7 
         3121.4        1.699e+7 
         3121.7        1.727e+7 
           3122        1.758e+7 
         3122.3        1.789e+7 
         3122.6        1.819e+7 
         3122.9        1.845e+7 
         3123.2        1.863e+7 
         3123.5         1.87e+7 
         3123.8        1.864e+7 
         3124.1        1.844e+7 
         3124.4        1.815e+7 
         3124.7        1.785e+7 
           3125        1.762e+7 
         3125.3        1.754e+7 
         3125.6        1.764e+7 
         3125.9        1.792e+7 
         3126.2        1.833e+7 
         3126.5        1.878e+7 
         3126.8        1.919e+7 
         3127.1        1.946e+7 
         3127.4        1.958e+7 
         3127.7        1.952e+7 
           3128        1.933e+7 
         3128.3        1.905e+7 
         3128.6        1.874e+7 
         3128.9        1.844e+7 
         3129.2        1.817e+7 
         3129.5        1.793e+7 
         3129.8        1.771e+7 
         3130.1         1.75e+7 
         3130.4        1.729e+7 
         3130.7         1.71e+7 
           3131        1.694e+7 
         3131.3        1.682e+7 
         3131.6        1.674e+7 
         3131.9        1.673e+7 
         3132.2        1.675e+7 
         3132.5        1.682e+7 
         3132.8        1.689e+7 
         3133.1        1.696e+7 
         3133.4        1.702e+7 
         3133.7        1.707e+7 
           3134        1.713e+7 
         3134.3        1.721e+7 
         3134.6        1.732e+7 
         3134.9        1.747e+7 
         3135.2        1.765e+7 
         3135.5        1.786e+7 
         3135.8        1.809e+7 
         3136.1        1.835e+7 
         3136.4        1.863e+7 
         3136.7        1.892e+7 
           3137        1.923e+7 
         3137.3        1.951e+7 
         3137.6        1.976e+7 
         3137.9        1.995e+7 
         3138.2        2.006e+7 
         3138.5        2.008e+7 
         3138.8        2.002e+7 
         3139.1        1.991e+7 
         3139.4        1.977e+7 
         3139.7        1.964e+7 
           3140        1.952e+7 
         3140.3        1.944e+7 
         3140.6        1.938e+7 
         3140.9        1.931e+7 
         3141.2        1.922e+7 
         3141.5        1.908e+7 
         3141.8        1.889e+7 
         3142.1        1.865e+7 
         3142.4        1.838e+7 
         3142.7         1.81e+7 
           3143        1.782e+7 
         3143.3        1.755e+7 
         3143.6         1.73e+7 
         3143.9        1.708e+7 
         3144.2        1.691e+7 
         3144.5        1.679e+7 
         3144.8        1.676e+7 
         3145.1        1.683e+7 
         3145.4          1.7e+7 
         3145.7        1.725e+7 
           3146        1.754e+7 
         3146.3        1.784e+7 
         3146.6        1.812e+7 
         3146.9        1.836e+7 
         3147.2        1.855e+7 
         3147.5         1.87e+7 
         3147.8        1.884e+7 
         3148.1        1.896e+7 
         3148.4        1.908e+7 
         3148.7        1.919e+7 
           3149        1.928e+7 
         3149.3        1.936e+7 
         3149.6        1.944e+7 
         3149.9         1.95e+7 
         3150.2        1.956e+7 
         3150.5         1.96e+7 
         3150.8        1.961e+7 
         3151.1        1.959e+7 
         3151.4        1.952e+7 
         3151.7        1.943e+7 
           3152        1.932e+7 
         3152.3        1.921e+7 
         3152.6        1.911e+7 
         3152.9        1.902e+7 
         3153.2        1.893e+7 
         3153.5        1.884e+7 
         3153.8        1.874e+7 
         3154.1        1.864e+7 
         3154.4        1.854e+7 
         3154.7        1.845e+7 
           3155        1.838e+7 
         3155.3        1.832e+7 
         3155.6        1.828e+7 
         3155.9        1.825e+7 
         3156.2        1.821e+7 
         3156.5        1.814e+7 
         3156.8        1.803e+7 
         3157.1        1.786e+7 
         3157.4        1.763e+7 
         3157.7        1.737e+7 
           3158         1.71e+7 
         3158.3        1.687e+7 
         3158.6        1.673e+7 
         3158.9        1.667e+7 
         3159.2        1.671e+7 
         3159.5        1.681e+7 
         3159.8        1.691e+7 
         3160.1        1.696e+7 
         3160.4        1.694e+7 
         3160.7        1.682e+7 
           3161        1.663e+7 
         3161.3         1.64e+7 
         3161.6         1.62e+7 
         3161.9        1.608e+7 
         3162.2        1.608e+7 
         3162.5        1.621e+7 
         3162.8        1.647e+7 
         3163.1        1.683e+7 
         3163.4        1.722e+7 
         3163.7        1.758e+7 
           3164        1.788e+7 
         3164.3        1.811e+7 
         3164.6        1.825e+7 
         3164.9        1.833e+7 
         3165.2        1.837e+7 
         3165.5         1.84e+7 
         3165.8        1.841e+7 
         3166.1         1.84e+7 
         3166.4        1.837e+7 
         3166.7        1.832e+7 
           3167        1.822e+7 
         3167.3         1.81e+7 
         3167.6        1.799e+7 
         3167.9         1.79e+7 
         3168.2        1.787e+7 
         3168.5        1.792e+7 
         3168.8        1.805e+7 
         3169.1        1.825e+7 
         3169.4         1.85e+7 
         3169.7        1.877e+7 
           3170        1.905e+7 
         3170.3        1.932e+7 
         3170.6        1.957e+7 
         3170.9        1.979e+7 
         3171.2        1.998e+7 
         3171.5        2.013e+7 
         3171.8        2.024e+7 
         3172.1        2.031e+7 
         3172.4        2.034e+7 
         3172.7        2.035e+7 
           3173        2.032e+7 
         3173.3        2.028e+7 
         3173.6        2.022e+7 
         3173.9        2.018e+7 
         3174.2        2.014e+7 
         3174.5        2.013e+7 
         3174.8        2.014e+7 
         3175.1        2.016e+7 
         3175.4        2.019e+7 
         3175.7        2.019e+7 
           3176        2.015e+7 
         3176.3        2.002e+7 
         3176.6        1.979e+7 
         3176.9        1.947e+7 
         3177.2        1.905e+7 
         3177.5        1.856e+7 
         3177.8        1.803e+7 
         3178.1        1.748e+7 
