# Granada HRES Library
# atmosphere = Phoenix  (atmosphere model used)
# feh = 3  (value for [Fe/H] for the model.)
# logg = 5 log(cm/s2) (value for Log(G) for the model.)
# teff = 3000 K (value for the effective temperature for the model. Temperatures are given in K)
#
# column 1: WAVELENGTH (ANGSTROM), Wavelength in Angstrom
# column 2: FLUX (ERG/CM2/S/A), Flux in erg/cm2/s/A
         3000.2           23.13 
         3000.5            20.1 
         3000.8           17.98 
         3001.1           16.82 
         3001.4            16.4 
         3001.7           16.43 
           3002           16.76 
         3002.3            17.6 
         3002.6           19.63 
         3002.9           23.76 
         3003.2            30.8 
         3003.5           41.15 
         3003.8            54.5 
         3004.1           69.73 
         3004.4           85.02 
         3004.7           98.31 
           3005           107.6 
         3005.3           111.6 
         3005.6           109.5 
         3005.9           101.8 
         3006.2           89.55 
         3006.5           74.74 
         3006.8           59.64 
         3007.1           46.38 
         3007.4           36.54 
         3007.7           30.94 
           3008            29.8 
         3008.3           32.94 
         3008.6           40.07 
         3008.9           50.92 
         3009.2           65.16 
         3009.5           82.07 
         3009.8             100 
         3010.1           116.6 
         3010.4           129.1 
         3010.7           135.5 
           3011           135.5 
         3011.3           131.1 
         3011.6           125.3 
         3011.9           121.3 
         3012.2           120.9 
         3012.5           123.9 
         3012.8             129 
         3013.1           133.9 
         3013.4           137.2 
         3013.7           137.6 
           3014           135.2 
         3014.3           130.2 
         3014.6           123.8 
         3014.9           116.6 
         3015.2           109.4 
         3015.5           102.5 
         3015.8           95.68 
         3016.1           88.87 
         3016.4           81.84 
         3016.7           74.47 
           3017           66.84 
         3017.3           59.25 
         3017.6           52.14 
         3017.9           45.81 
         3018.2           40.23 
         3018.5           35.12 
         3018.8           30.13 
         3019.1           25.13 
         3019.4           20.26 
         3019.7            15.8 
           3020           12.11 
         3020.3           9.515 
         3020.6           8.321 
         3020.9           8.756 
         3021.2           10.91 
         3021.5           14.67 
         3021.8           19.65 
         3022.1           25.17 
         3022.4            30.4 
         3022.7           34.46 
           3023            36.8 
         3023.3           37.31 
         3023.6           36.46 
         3023.9           34.98 
         3024.2           33.54 
         3024.5           32.42 
         3024.8           31.56 
         3025.1           31.04 
         3025.4            31.4 
         3025.7           33.66 
           3026           38.94 
         3026.3           47.82 
         3026.6           59.96 
         3026.9           74.19 
         3027.2           89.07 
         3027.5           103.4 
         3027.8           116.8 
         3028.1           129.4 
         3028.4           141.8 
         3028.7           154.2 
           3029             166 
         3029.3           176.1 
         3029.6           182.9 
         3029.9             185 
         3030.2           182.2 
         3030.5           175.4 
         3030.8           167.2 
         3031.1           161.2 
         3031.4           160.6 
         3031.7           167.1 
           3032           179.2 
         3032.3           193.1 
         3032.6           204.1 
         3032.9           208.2 
         3033.2           204.3 
         3033.5           193.8 
         3033.8           180.3 
         3034.1           167.6 
         3034.4           158.1 
         3034.7           151.8 
           3035           146.7 
         3035.3           139.8 
         3035.6           129.2 
         3035.9             114 
         3036.2           95.78 
         3036.5           76.99 
         3036.8           60.49 
         3037.1           48.83 
         3037.4           43.78 
         3037.7           46.02 
           3038            55.1 
         3038.3           69.47 
         3038.6           86.82 
         3038.9           104.4 
         3039.2           119.7 
         3039.5           130.7 
         3039.8           136.7 
         3040.1           138.3 
         3040.4           136.5 
         3040.7             133 
           3041           129.1 
         3041.3           125.9 
         3041.6           124.5 
         3041.9           126.2 
         3042.2             131 
         3042.5           138.2 
         3042.8           145.8 
         3043.1           151.8 
         3043.4           155.2 
         3043.7           155.7 
           3044           154.1 
         3044.3           151.2 
         3044.6           147.5 
         3044.9             143 
         3045.2           137.2 
         3045.5           129.1 
         3045.8           118.1 
         3046.1             104 
         3046.4           87.56 
         3046.7           70.64 
           3047           55.39 
         3047.3           43.89 
         3047.6           37.56 
         3047.9           36.95 
         3048.2           41.69 
         3048.5           50.55 
         3048.8           61.55 
         3049.1           72.15 
         3049.4           79.94 
         3049.7           83.41 
           3050           82.74 
         3050.3           79.84 
         3050.6           77.65 
         3050.9            78.9 
         3051.2           85.06 
         3051.5           95.85 
         3051.8           109.5 
         3052.1           123.1 
         3052.4           133.6 
         3052.7           138.5 
           3053           136.7 
         3053.3           129.4 
         3053.6           119.3 
         3053.9           110.2 
         3054.2           105.1 
         3054.5           105.3 
         3054.8           109.9 
         3055.1           116.1 
         3055.4             121 
         3055.7           121.8 
           3056           117.4 
         3056.3           108.2 
         3056.6           95.48 
         3056.9           81.25 
         3057.2           67.36 
         3057.5           55.19 
         3057.8           45.48 
         3058.1           38.43 
         3058.4           34.13 
         3058.7           32.91 
           3059           35.41 
         3059.3           42.31 
         3059.6           53.91 
         3059.9           69.75 
         3060.2           88.63 
         3060.5           108.8 
         3060.8           128.4 
         3061.1             146 
         3061.4           160.6 
         3061.7           171.3 
           3062           176.8 
         3062.3           175.4 
         3062.6           165.9 
         3062.9           148.8 
         3063.2           126.4 
         3063.5             103 
         3063.8           83.04 
         3064.1           69.74 
         3064.4           64.06 
         3064.7            64.6 
           3065           68.47 
         3065.3           72.53 
         3065.6           74.58 
         3065.9           73.94 
         3066.2           71.34 
         3066.5           68.13 
         3066.8           65.61 
         3067.1           64.68 
         3067.4           65.85 
         3067.7           69.44 
           3068           75.46 
         3068.3           83.36 
         3068.6           92.03 
         3068.9           100.2 
         3069.2           106.8 
         3069.5             112 
         3069.8             117 
         3070.1           123.6 
         3070.4           133.5 
         3070.7           147.1 
           3071           163.9 
         3071.3             183 
         3071.6           204.3 
         3071.9           227.9 
         3072.2           253.4 
         3072.5             278 
         3072.8           297.1 
         3073.1           305.9 
         3073.4           302.5 
         3073.7           288.7 
           3074           268.8 
         3074.3           247.2 
         3074.6           227.4 
         3074.9           211.5 
         3075.2           201.2 
         3075.5           198.5 
         3075.8           203.8 
         3076.1           215.5 
         3076.4           229.6 
         3076.7           241.1 
           3077           246.5 
         3077.3           244.6 
         3077.6           236.7 
         3077.9           225.4 
         3078.2           213.1 
         3078.5           200.8 
         3078.8           188.3 
         3079.1           174.3 
         3079.4           157.8 
         3079.7           138.8 
           3080           118.3 
         3080.3           97.68 
         3080.6           78.33 
         3080.9           61.29 
         3081.2           47.22 
         3081.5           36.51 
         3081.8           29.37 
         3082.1           25.84 
         3082.4           25.78 
         3082.7           28.93 
           3083           35.04 
         3083.3            43.8 
         3083.6           54.78 
         3083.9           67.29 
         3084.2           80.51 
         3084.5           93.79 
         3084.8           106.8 
         3085.1           119.1 
         3085.4           130.1 
         3085.7             139 
           3086           145.3 
         3086.3           149.6 
         3086.6           153.7 
         3086.9           159.8 
         3087.2           169.3 
         3087.5           181.6 
         3087.8             194 
         3088.1           202.5 
         3088.4           203.4 
         3088.7           194.6 
           3089           176.9 
         3089.3             153 
         3089.6           127.3 
         3089.9           103.4 
         3090.2           83.46 
         3090.5           67.91 
         3090.8           55.88 
         3091.1           46.14 
         3091.4           37.83 
         3091.7           30.68 
           3092           24.97 
         3092.3           21.28 
         3092.6           20.18 
         3092.9           22.05 
         3093.2           26.86 
         3093.5           34.12 
         3093.8           42.94 
         3094.1           52.22 
         3094.4           60.85 
         3094.7           67.93 
           3095           72.95 
         3095.3           75.97 
         3095.6           77.82 
         3095.9           80.12 
         3096.2           84.99 
         3096.5           94.19 
         3096.8           108.1 
         3097.1           124.7 
         3097.4           140.1 
         3097.7           149.4 
           3098             149 
         3098.3           138.4 
         3098.6           119.9 
         3098.9           98.17 
         3099.2           78.01 
         3099.5           62.87 
         3099.8           53.99 
         3100.1           50.56 
         3100.4           50.54 
         3100.7           51.95 
           3101              54 
         3101.3           64.51 
         3101.6           77.43 
         3101.9           97.65 
         3102.2           125.1 
         3102.5           157.9 
         3102.8           193.3 
         3103.1           227.2 
         3103.4           255.5 
         3103.7             274 
           3104           279.4 
         3104.3           270.5 
         3104.6           249.1 
         3104.9           219.5 
         3105.2           188.1 
         3105.5           161.8 
         3105.8             145 
         3106.1           139.2 
         3106.4           143.5 
         3106.7           154.9 
           3107           170.6 
         3107.3             187 
         3107.6           200.6 
         3107.9           209.7 
         3108.2           214.8 
         3108.5           219.8 
         3108.8           230.9 
         3109.1           254.3 
         3109.4           291.8 
         3109.7             340 
           3110           390.6 
         3110.3           432.2 
         3110.6           455.1 
         3110.9           454.7 
         3111.2           432.4 
         3111.5           395.5 
         3111.8           353.7 
         3112.1           315.6 
         3112.4           287.4 
         3112.7           272.3 
           3113           272.3 
         3113.3           288.7 
         3113.6           322.3 
         3113.9           372.3 
         3114.2           434.4 
         3114.5           500.8 
         3114.8           559.7 
         3115.1           598.9 
         3115.4           608.4 
         3115.7           584.7 
           3116           532.8 
         3116.3           466.4 
         3116.6           403.4 
         3116.9             362 
         3117.2           353.3 
         3117.5           378.9 
         3117.8           430.3 
         3118.1           491.8 
         3118.4             547 
         3118.7           584.3 
           3119           601.4 
         3119.3           603.4 
         3119.6           598.9 
         3119.9           592.9 
         3120.2           583.9 
         3120.5             565 
         3120.8           528.9 
         3121.1           474.6 
         3121.4           409.4 
         3121.7           346.3 
           3122           298.5 
         3122.3           274.1 
         3122.6           272.7 
         3122.9           288.5 
         3123.2             313 
         3123.5           339.5 
         3123.8           364.2 
         3124.1           386.3 
         3124.4           406.6 
         3124.7           425.8 
           3125             444 
         3125.3           461.7 
         3125.6           479.7 
         3125.9           499.2 
         3126.2           519.4 
         3126.5           535.9 
         3126.8           541.7 
         3127.1           529.9 
         3127.4           499.5 
         3127.7           456.1 
           3128             410 
         3128.3           370.9 
         3128.6           344.5 
         3128.9           331.9 
         3129.2           332.1 
         3129.5           343.9 
         3129.8           366.4 
         3130.1             399 
         3130.4             439 
         3130.7           481.2 
           3131           517.6 
         3131.3           539.6 
         3131.6             540 
         3131.9           515.7 
         3132.2           469.6 
         3132.5           409.3 
         3132.8           345.7 
         3133.1           290.1 
         3133.4           252.3 
         3133.7           238.4 
           3134           249.4 
         3134.3           279.9 
         3134.6             319 
         3134.9           353.2 
         3135.2           372.1 
         3135.5           372.4 
         3135.8           359.3 
         3136.1           344.4 
         3136.4           340.9 
         3136.7           359.7 
           3137           405.5 
         3137.3           475.2 
         3137.6           556.8 
         3137.9           633.2 
         3138.2           686.8 
         3138.5           706.9 
         3138.8           692.8 
         3139.1           653.4 
         3139.4           602.8 
         3139.7           555.4 
           3140           521.7 
         3140.3           506.5 
         3140.6           508.7 
         3140.9           522.2 
         3141.2           539.2 
         3141.5           552.7 
         3141.8           557.9 
         3142.1           552.2 
         3142.4           534.9 
         3142.7           508.2 
           3143           478.1 
         3143.3           452.8 
         3143.6             439 
         3143.9           437.3 
         3144.2           442.9 
         3144.5           448.4 
         3144.8           448.7 
         3145.1           443.2 
         3145.4           433.8 
         3145.7             422 
           3146             409 
         3146.3           398.1 
         3146.6           396.7 
         3146.9           414.9 
         3147.2           460.6 
         3147.5           533.5 
         3147.8           622.8 
         3148.1           709.8 
         3148.4           773.3 
         3148.7           797.2 
           3149           776.5 
         3149.3           717.5 
         3149.6           635.6 
         3149.9           549.5 
         3150.2             475 
         3150.5           423.3 
         3150.8           399.1 
         3151.1           401.3 
         3151.4           425.1 
         3151.7           463.1 
           3152           506.2 
         3152.3           545.8 
         3152.6           574.6 
         3152.9           587.9 
         3153.2           586.5 
         3153.5           576.6 
         3153.8           570.7 
         3154.1           581.8 
         3154.4           617.2 
         3154.7           674.7 
           3155           742.9 
         3155.3           808.6 
         3155.6           862.5 
         3155.9           903.3 
         3156.2           935.7 
         3156.5           966.1 
         3156.8           998.2 
         3157.1            1032 
         3157.4            1064 
         3157.7            1091 
           3158            1113 
         3158.3            1131 
         3158.6            1147 
         3158.9            1155 
         3159.2            1149 
         3159.5            1122 
         3159.8            1079 
         3160.1            1031 
         3160.4           998.3 
         3160.7             994 
           3161            1017 
         3161.3            1056 
         3161.6            1095 
         3161.9            1119 
         3162.2            1126 
         3162.5            1115 
         3162.8            1088 
         3163.1            1048 
         3163.4           998.3 
         3163.7           949.4 
           3164           911.7 
         3164.3           894.1 
         3164.6           901.2 
         3164.9           934.6 
         3165.2           997.5 
         3165.5            1094 
         3165.8            1230 
         3166.1            1400 
         3166.4            1592 
         3166.7            1781 
           3167            1935 
         3167.3            2022 
         3167.6            2023 
         3167.9            1942 
         3168.2            1809 
         3168.5            1673 
         3168.8            1579 
         3169.1            1552 
         3169.4            1586 
         3169.7            1650 
           3170            1705 
         3170.3            1725 
         3170.6            1708 
         3170.9            1671 
         3171.2            1637 
         3171.5            1624 
         3171.8            1630 
         3172.1            1643 
         3172.4            1652 
         3172.7            1653 
           3173            1657 
         3173.3            1681 
         3173.6            1737 
         3173.9            1823 
         3174.2            1923 
         3174.5            2014 
         3174.8            2081 
         3175.1            2120 
         3175.4            2135 
         3175.7            2130 
           3176            2105 
         3176.3            2059 
         3176.6            1994 
         3176.9            1917 
         3177.2            1846 
         3177.5            1801 
         3177.8            1792 
         3178.1            1811 
