# Granada HRES Library
# atmosphere = Phoenix  (atmosphere model used)
# feh = 3  (value for [Fe/H] for the model.)
# logg = 3.5 log(cm/s2) (value for Log(G) for the model.)
# teff = 3000 K (value for the effective temperature for the model. Temperatures are given in K)
#
# column 1: WAVELENGTH (ANGSTROM), Wavelength in Angstrom
# column 2: FLUX (ERG/CM2/S/A), Flux in erg/cm2/s/A
         3000.2           57.64 
         3000.5           49.29 
         3000.8           43.96 
         3001.1           41.33 
         3001.4           40.46 
         3001.7           40.24 
           3002           40.07 
         3002.3           40.32 
         3002.6           42.31 
         3002.9           47.78 
         3003.2           58.19 
         3003.5           74.04 
         3003.8           94.51 
         3004.1           117.5 
         3004.4           140.2 
         3004.7           159.4 
           3005           172.6 
         3005.3             178 
         3005.6           174.8 
         3005.9           163.9 
         3006.2             147 
         3006.5           127.1 
         3006.8           107.4 
         3007.1           90.56 
         3007.4           78.73 
         3007.7           72.79 
           3008           73.02 
         3008.3            79.3 
         3008.6           91.59 
         3008.9           110.1 
         3009.2             135 
         3009.5           165.2 
         3009.8           197.6 
         3010.1             227 
         3010.4             248 
         3010.7           256.9 
           3011             254 
         3011.3           243.1 
         3011.6           229.8 
         3011.9           218.8 
         3012.2           212.4 
         3012.5             210 
         3012.8           209.9 
         3013.1             210 
         3013.4           209.5 
         3013.7           208.2 
           3014           206.2 
         3014.3           203.4 
         3014.6           200.1 
         3014.9           196.5 
         3015.2           192.8 
         3015.5           188.9 
         3015.8           184.5 
         3016.1           179.1 
         3016.4             172 
         3016.7           162.8 
           3017             152 
         3017.3           140.4 
         3017.6             129 
         3017.9           118.5 
         3018.2           108.5 
         3018.5           98.09 
         3018.8           86.55 
         3019.1           73.84 
         3019.4           60.64 
         3019.7           48.03 
           3020           37.27 
         3020.3           29.54 
         3020.6           25.94 
         3020.9           27.29 
         3021.2           33.87 
         3021.5           45.22 
         3021.8           60.02 
         3022.1           76.16 
         3022.4           91.04 
         3022.7           102.1 
           3023           107.5 
         3023.3           106.9 
         3023.6           101.3 
         3023.9           93.16 
         3024.2           84.87 
         3024.5           78.01 
         3024.8           73.06 
         3025.1           69.91 
         3025.4           68.74 
         3025.7           70.23 
           3026           75.05 
         3026.3           83.03 
         3026.6           92.73 
         3026.9           102.2 
         3027.2           109.9 
         3027.5             116 
         3027.8           122.7 
         3028.1           132.3 
         3028.4           146.8 
         3028.7           166.1 
           3029           187.3 
         3029.3           206.5 
         3029.6           219.8 
         3029.9           225.4 
         3030.2           224.5 
         3030.5           220.7 
         3030.8           219.1 
         3031.1             224 
         3031.4             237 
         3031.7             256 
           3032           274.9 
         3032.3           286.1 
         3032.6           283.7 
         3032.9           266.6 
         3033.2           239.1 
         3033.5             209 
         3033.8           184.5 
         3034.1           171.2 
         3034.4           170.6 
         3034.7             179 
           3035           190.5 
         3035.3           198.4 
         3035.6             198 
         3035.9           187.6 
         3036.2             169 
         3036.5           146.1 
         3036.8           124.4 
         3037.1             109 
         3037.4           103.8 
         3037.7           110.1 
           3038           126.3 
         3038.3           148.5 
         3038.6           172.4 
         3038.9           194.2 
         3039.2           211.8 
         3039.5           223.5 
         3039.8           228.2 
         3040.1           225.5 
         3040.4           215.8 
         3040.7           201.3 
           3041             186 
         3041.3           174.6 
         3041.6           171.1 
         3041.9           177.2 
         3042.2           191.5 
         3042.5           209.9 
         3042.8           227.1 
         3043.1             239 
         3043.4             244 
         3043.7           243.3 
           3044           239.6 
         3044.3           235.8 
         3044.6           233.7 
         3044.9           233.6 
         3045.2           234.3 
         3045.5             233 
         3045.8           226.7 
         3046.1           212.7 
         3046.4           190.9 
         3046.7           163.4 
           3047           134.9 
         3047.3           110.7 
         3047.6           95.33 
         3047.9           91.62 
         3048.2           99.98 
         3048.5           118.5 
         3048.8           142.8 
         3049.1           167.2 
         3049.4           185.4 
         3049.7           193.2 
           3050           189.9 
         3050.3           179.2 
         3050.6           166.8 
         3050.9           158.3 
         3051.2           156.5 
         3051.5           161.5 
         3051.8           170.6 
         3052.1             180 
         3052.4           185.9 
         3052.7           185.6 
           3053           178.5 
         3053.3           166.3 
         3053.6           152.6 
         3053.9           141.4 
         3054.2           135.7 
         3054.5             136 
         3054.8           140.9 
         3055.1           147.1 
         3055.4           151.4 
         3055.7           151.8 
           3056           147.7 
         3056.3           140.5 
         3056.6           131.8 
         3056.9           123.5 
         3057.2           116.5 
         3057.5           110.8 
         3057.8           105.9 
         3058.1           101.4 
         3058.4           97.59 
         3058.7           96.07 
           3059           99.33 
         3059.3           109.5 
         3059.6           127.4 
         3059.9           151.5 
         3060.2           179.1 
         3060.5           206.5 
         3060.8           230.7 
         3061.1           249.3 
         3061.4             261 
         3061.7             265 
           3062           260.3 
         3062.3           245.5 
         3062.6           220.7 
         3062.9           187.6 
         3063.2           150.8 
         3063.5             116 
         3063.8           88.26 
         3064.1            70.3 
         3064.4           61.85 
         3064.7           60.49 
           3065              63 
         3065.3            66.9 
         3065.6              71 
         3065.9           75.29 
         3066.2           80.12 
         3066.5           85.45 
         3066.8           90.62 
         3067.1           94.81 
         3067.4           97.82 
         3067.7           100.2 
           3068           102.8 
         3068.3           105.8 
         3068.6           108.4 
         3068.9           109.5 
         3069.2           107.9 
         3069.5           104.2 
         3069.8           100.5 
         3070.1           100.3 
         3070.4           106.3 
         3070.7             120 
           3071           140.1 
         3071.3           164.3 
         3071.6           189.6 
         3071.9           214.2 
         3072.2           236.9 
         3072.5           256.7 
         3072.8           272.2 
         3073.1           282.1 
         3073.4           286.4 
         3073.7           286.4 
           3074           283.7 
         3074.3           279.7 
         3074.6           275.6 
         3074.9           273.1 
         3075.2             275 
         3075.5           284.4 
         3075.8             302 
         3076.1           324.9 
         3076.4             347 
         3076.7           361.7 
           3077           365.1 
         3077.3           357.3 
         3077.6           341.8 
         3077.9           323.1 
         3078.2             305 
         3078.5           288.7 
         3078.8             273 
         3079.1           255.4 
         3079.4             234 
         3079.7           208.6 
           3080           180.9 
         3080.3           152.9 
         3080.6           126.7 
         3080.9           103.7 
         3081.2           84.99 
         3081.5           71.32 
         3081.8           63.18 
         3082.1           60.35 
         3082.4           61.78 
         3082.7           66.02 
           3083           71.96 
         3083.3           79.42 
         3083.6            88.9 
         3083.9           100.9 
         3084.2           115.2 
         3084.5           131.3 
         3084.8           148.3 
         3085.1           165.1 
         3085.4           180.3 
         3085.7           192.4 
           3086             201 
         3086.3           208.2 
         3086.6           217.9 
         3086.9           234.8 
         3087.2           261.3 
         3087.5           295.5 
         3087.8           330.8 
         3088.1           357.7 
         3088.4           366.9 
         3088.7           353.7 
           3089           319.1 
         3089.3             270 
         3089.6           216.1 
         3089.9           166.3 
         3090.2           126.3 
         3090.5            97.7 
         3090.8           79.09 
         3091.1            67.5 
         3091.4           59.98 
         3091.7           54.55 
           3092            50.6 
         3092.3           48.85 
         3092.6           50.71 
         3092.9           57.45 
         3093.2           69.27 
         3093.5            84.9 
         3093.8           101.9 
         3094.1           117.6 
         3094.4           129.4 
         3094.7           136.2 
           3095           137.4 
         3095.3           134.4 
         3095.6           129.8 
         3095.9             128 
         3096.2           134.3 
         3096.5           152.4 
         3096.8           182.2 
         3097.1           218.4 
         3097.4           251.5 
         3097.7             271 
           3098           270.1 
         3098.3           248.4 
         3098.6           212.2 
         3098.9           171.5 
         3099.2           136.1 
         3099.5           112.5 
         3099.8           102.4 
         3100.1           103.1 
         3100.4           109.3 
         3100.7             116 
           3101           120.4 
         3101.3           128.4 
         3101.6           140.1 
         3101.9             161 
         3102.2             191 
         3102.5           227.2 
         3102.8           264.9 
         3103.1           299.8 
         3103.4           327.9 
         3103.7           346.1 
           3104           351.5 
         3104.3           342.2 
         3104.6           318.4 
         3104.9           283.2 
         3105.2             243 
         3105.5           205.1 
         3105.8           175.9 
         3106.1           158.4 
         3106.4           153.4 
         3106.7           158.8 
           3107             172 
         3107.3             189 
         3107.6           205.1 
         3107.9           216.2 
         3108.2           220.5 
         3108.5             220 
         3108.8           220.5 
         3109.1           229.1 
         3109.4           250.8 
         3109.7           286.7 
           3110           332.2 
         3110.3           378.3 
         3110.6           414.5 
         3110.9           432.1 
         3111.2           427.1 
         3111.5           401.6 
         3111.8           362.6 
         3112.1           319.5 
         3112.4           280.7 
         3112.7           252.6 
           3113             239 
         3113.3           241.6 
         3113.6             262 
         3113.9           299.6 
         3114.2           352.3 
         3114.5           414.1 
         3114.8           475.5 
         3115.1           524.6 
         3115.4           549.8 
         3115.7           544.3 
           3116           509.7 
         3116.3             457 
         3116.6             404 
         3116.9           369.5 
         3117.2           366.9 
         3117.5           398.9 
         3117.8           457.1 
         3118.1           525.9 
         3118.4           587.9 
         3118.7           630.8 
           3119           650.9 
         3119.3           652.8 
         3119.6           645.7 
         3119.9           636.9 
         3120.2           626.5 
         3120.5           607.5 
         3120.8           569.8 
         3121.1             509 
         3121.4           430.8 
         3121.7           350.2 
           3122           285.2 
         3122.3           248.1 
         3122.6           241.3 
         3122.9           257.2 
         3123.2           283.1 
         3123.5           307.2 
         3123.8           323.5 
         3124.1           332.6 
         3124.4           339.4 
         3124.7           349.4 
           3125           364.4 
         3125.3           381.8 
         3125.6           396.3 
         3125.9           404.7 
         3126.2           406.4 
         3126.5           402.9 
         3126.8           394.4 
         3127.1           379.8 
         3127.4           357.4 
         3127.7           328.8 
           3128           297.5 
         3128.3           268.5 
         3128.6           246.4 
         3128.9           234.2 
         3129.2           234.2 
         3129.5           247.7 
         3129.8           275.3 
         3130.1           316.9 
         3130.4           371.3 
         3130.7           434.3 
           3131           497.7 
         3131.3           549.7 
         3131.6           577.4 
         3131.9           572.9 
         3132.2           537.9 
         3132.5           482.7 
         3132.8           422.2 
         3133.1           369.4 
         3133.4           332.7 
         3133.7           316.8 
           3134           322.1 
         3134.3           344.3 
         3134.6           373.2 
         3134.9             396 
         3135.2           402.3 
         3135.5             390 
         3135.8           366.5 
         3136.1           344.9 
         3136.4           338.4 
         3136.7           355.2 
           3137           395.9 
         3137.3           453.6 
         3137.6           515.4 
         3137.9           566.5 
         3138.2             596 
         3138.5           600.4 
         3138.8           585.1 
         3139.1           561.2 
         3139.4           539.9 
         3139.7           529.6 
           3140           533.6 
         3140.3           549.5 
         3140.6           570.6 
         3140.9           588.5 
         3141.2           597.5 
         3141.5           596.7 
         3141.8           588.6 
         3142.1           575.7 
         3142.4           557.2 
         3142.7           532.3 
           3143           502.5 
         3143.3           474.2 
         3143.6           453.7 
         3143.9           443.3 
         3144.2             439 
         3144.5           433.4 
         3144.8           420.8 
         3145.1           399.5 
         3145.4           371.7 
         3145.7           340.7 
           3146           310.8 
         3146.3           288.8 
         3146.6           283.4 
         3146.9           304.1 
         3147.2           357.6 
         3147.5           443.2 
         3147.8           550.6 
         3148.1           659.8 
         3148.4           746.1 
         3148.7           787.5 
           3149           774.5 
         3149.3           713.9 
         3149.6           625.4 
         3149.9           532.7 
         3150.2           453.6 
         3150.5           395.2 
         3150.8           356.7 
         3151.1           334.1 
         3151.4           324.1 
         3151.7           326.7 
           3152           342.2 
         3152.3           368.6 
         3152.6           400.7 
         3152.9           430.5 
         3153.2           452.1 
         3153.5           465.4 
         3153.8           476.3 
         3154.1           492.6 
         3154.4           516.9 
         3154.7           543.6 
           3155           562.3 
         3155.3           564.9 
         3155.6             552 
         3155.9           533.3 
         3156.2           521.9 
         3156.5           527.4 
         3156.8           552.2 
         3157.1           591.2 
         3157.4           636.2 
         3157.7           679.5 
           3158             717 
         3158.3             748 
         3158.6           771.2 
         3158.9           783.4 
         3159.2           779.6 
         3159.5           758.5 
         3159.8             727 
         3160.1           701.1 
         3160.4           698.1 
         3160.7           726.3 
           3161           779.1 
         3161.3           838.5 
         3161.6             887 
         3161.9           917.9 
         3162.2           936.1 
         3162.5           950.2 
         3162.8           963.6 
         3163.1           974.3 
         3163.4           978.5 
         3163.7           977.5 
           3164           975.9 
         3164.3           977.6 
         3164.6           982.5 
         3164.9           988.8 
         3165.2           998.4 
         3165.5            1021 
         3165.8            1072 
         3166.1            1165 
         3166.4            1304 
         3166.7            1479 
           3167            1656 
         3167.3            1796 
         3167.6            1860 
         3167.9            1830 
         3168.2            1724 
         3168.5            1585 
         3168.8            1463 
         3169.1            1389 
         3169.4            1362 
         3169.7            1356 
           3170            1338 
         3170.3            1292 
         3170.6            1224 
         3170.9            1156 
         3171.2            1111 
         3171.5            1099 
         3171.8            1112 
         3172.1            1128 
         3172.4            1130 
         3172.7            1113 
           3173            1090 
         3173.3            1087 
         3173.6            1125 
         3173.9            1209 
         3174.2            1329 
         3174.5            1463 
         3174.8            1589 
         3175.1            1684 
         3175.4            1737 
         3175.7            1736 
           3176            1680 
         3176.3            1578 
         3176.6            1452 
         3176.9            1329 
         3177.2            1241 
         3177.5            1211 
         3177.8            1243 
         3178.1            1318 
