# Granada HRES Library
# atmosphere = Spectrum  (atmosphere model used)
# feh = 0  (value for [Fe/H] for the model.)
# logg = 3.5 log(cm/s2) (value for Log(G) for the model.)
# teff = 5750 K (value for the effective temperature for the model. Temperatures are given in K)
#
# column 1: WAVELENGTH (ANGSTROM), Wavelength in Angstrom
# column 2: FLUX (ERG/CM2/S/A), Flux in erg/cm2/s/A
         3000.2         1.46e+6 
         3000.5        1.466e+6 
         3000.8         1.48e+6 
         3001.1        1.496e+6 
         3001.4        1.511e+6 
         3001.7        1.521e+6 
           3002        1.533e+6 
         3002.3        1.559e+6 
         3002.6        1.619e+6 
         3002.9        1.734e+6 
         3003.2        1.918e+6 
         3003.5        2.175e+6 
         3003.8        2.491e+6 
         3004.1        2.843e+6 
         3004.4        3.194e+6 
         3004.7        3.507e+6 
           3005        3.745e+6 
         3005.3        3.882e+6 
         3005.6        3.902e+6 
         3005.9        3.809e+6 
         3006.2        3.618e+6 
         3006.5        3.361e+6 
         3006.8        3.075e+6 
         3007.1          2.8e+6 
         3007.4        2.571e+6 
         3007.7        2.412e+6 
           3008        2.338e+6 
         3008.3        2.357e+6 
         3008.6        2.465e+6 
         3008.9        2.655e+6 
         3009.2        2.911e+6 
         3009.5        3.205e+6 
         3009.8        3.502e+6 
         3010.1         3.76e+6 
         3010.4        3.945e+6 
         3010.7        4.035e+6 
           3011        4.031e+6 
         3011.3        3.956e+6 
         3011.6        3.849e+6 
         3011.9        3.747e+6 
         3012.2        3.673e+6 
         3012.5        3.631e+6 
         3012.8        3.615e+6 
         3013.1        3.607e+6 
         3013.4        3.595e+6 
         3013.7        3.574e+6 
           3014        3.544e+6 
         3014.3         3.51e+6 
         3014.6        3.478e+6 
         3014.9        3.451e+6 
         3015.2        3.431e+6 
         3015.5        3.415e+6 
         3015.8          3.4e+6 
         3016.1        3.376e+6 
         3016.4        3.335e+6 
         3016.7        3.266e+6 
           3017        3.164e+6 
         3017.3        3.029e+6 
         3017.6        2.863e+6 
         3017.9        2.671e+6 
         3018.2        2.458e+6 
         3018.5        2.229e+6 
         3018.8        1.989e+6 
         3019.1        1.747e+6 
         3019.4        1.514e+6 
         3019.7        1.307e+6 
           3020        1.145e+6 
         3020.3        1.053e+6 
         3020.6        1.053e+6 
         3020.9        1.161e+6 
         3021.2        1.382e+6 
         3021.5        1.702e+6 
         3021.8        2.091e+6 
         3022.1        2.504e+6 
         3022.4        2.895e+6 
         3022.7        3.219e+6 
           3023        3.446e+6 
         3023.3        3.565e+6 
         3023.6        3.583e+6 
         3023.9        3.514e+6 
         3024.2        3.379e+6 
         3024.5        3.198e+6 
         3024.8        2.996e+6 
         3025.1        2.805e+6 
         3025.4        2.662e+6 
         3025.7        2.606e+6 
           3026        2.669e+6 
         3026.3         2.86e+6 
         3026.6        3.158e+6 
         3026.9        3.522e+6 
         3027.2        3.895e+6 
         3027.5        4.222e+6 
         3027.8        4.462e+6 
         3028.1        4.588e+6 
         3028.4        4.596e+6 
         3028.7        4.498e+6 
           3029        4.319e+6 
         3029.3         4.09e+6 
         3029.6        3.842e+6 
         3029.9        3.602e+6 
         3030.2        3.392e+6 
         3030.5        3.229e+6 
         3030.8        3.128e+6 
         3031.1        3.103e+6 
         3031.4        3.158e+6 
         3031.7        3.288e+6 
           3032        3.468e+6 
         3032.3        3.668e+6 
         3032.6        3.856e+6 
         3032.9         4.01e+6 
         3033.2        4.124e+6 
         3033.5        4.209e+6 
         3033.8        4.279e+6 
         3034.1        4.347e+6 
         3034.4        4.414e+6 
         3034.7        4.466e+6 
           3035        4.478e+6 
         3035.3        4.418e+6 
         3035.6        4.262e+6 
         3035.9        3.999e+6 
         3036.2        3.646e+6 
         3036.5        3.243e+6 
         3036.8        2.845e+6 
         3037.1        2.512e+6 
         3037.4        2.293e+6 
         3037.7        2.217e+6 
           3038        2.282e+6 
         3038.3        2.461e+6 
         3038.6         2.71e+6 
         3038.9        2.978e+6 
         3039.2        3.217e+6 
         3039.5        3.391e+6 
         3039.8        3.482e+6 
         3040.1        3.487e+6 
         3040.4        3.416e+6 
         3040.7        3.294e+6 
           3041        3.146e+6 
         3041.3        3.005e+6 
         3041.6        2.897e+6 
         3041.9        2.848e+6 
         3042.2         2.87e+6 
         3042.5         2.96e+6 
         3042.8        3.103e+6 
         3043.1        3.268e+6 
         3043.4        3.426e+6 
         3043.7        3.554e+6 
           3044        3.641e+6 
         3044.3        3.686e+6 
         3044.6        3.696e+6 
         3044.9        3.677e+6 
         3045.2        3.629e+6 
         3045.5        3.545e+6 
         3045.8        3.413e+6 
         3046.1        3.232e+6 
         3046.4         3.01e+6 
         3046.7        2.775e+6 
           3047        2.568e+6 
         3047.3        2.435e+6 
         3047.6        2.406e+6 
         3047.9        2.493e+6 
         3048.2        2.676e+6 
         3048.5        2.916e+6 
         3048.8        3.164e+6 
         3049.1        3.375e+6 
         3049.4        3.524e+6 
         3049.7        3.611e+6 
           3050        3.663e+6 
         3050.3        3.723e+6 
         3050.6        3.831e+6 
         3050.9        4.008e+6 
         3051.2        4.243e+6 
         3051.5        4.498e+6 
         3051.8        4.714e+6 
         3052.1        4.837e+6 
         3052.4        4.835e+6 
         3052.7        4.704e+6 
           3053        4.472e+6 
         3053.3        4.189e+6 
         3053.6        3.913e+6 
         3053.9        3.695e+6 
         3054.2        3.568e+6 
         3054.5        3.538e+6 
         3054.8        3.585e+6 
         3055.1        3.668e+6 
         3055.4        3.737e+6 
         3055.7        3.746e+6 
           3056        3.663e+6 
         3056.3        3.482e+6 
         3056.6        3.223e+6 
         3056.9        2.924e+6 
         3057.2        2.629e+6 
         3057.5        2.375e+6 
         3057.8        2.188e+6 
         3058.1        2.075e+6 
         3058.4        2.038e+6 
         3058.7        2.076e+6 
           3059        2.198e+6 
         3059.3        2.404e+6 
         3059.6        2.692e+6 
         3059.9         3.04e+6 
         3060.2        3.412e+6 
         3060.5        3.765e+6 
         3060.8        4.052e+6 
         3061.1        4.243e+6 
         3061.4        4.322e+6 
         3061.7         4.29e+6 
           3062        4.163e+6 
         3062.3        3.965e+6 
         3062.6         3.72e+6 
         3062.9        3.459e+6 
         3063.2        3.212e+6 
         3063.5        3.006e+6 
         3063.8        2.859e+6 
         3064.1        2.775e+6 
         3064.4        2.744e+6 
         3064.7         2.74e+6 
           3065        2.732e+6 
         3065.3        2.693e+6 
         3065.6         2.61e+6 
         3065.9        2.488e+6 
         3066.2        2.347e+6 
         3066.5        2.222e+6 
         3066.8        2.145e+6 
         3067.1        2.145e+6 
         3067.4        2.237e+6 
         3067.7         2.42e+6 
           3068         2.68e+6 
         3068.3        2.986e+6 
         3068.6        3.298e+6 
         3068.9         3.58e+6 
         3069.2        3.799e+6 
         3069.5         3.94e+6 
         3069.8        4.006e+6 
         3070.1        4.013e+6 
         3070.4        3.978e+6 
         3070.7        3.922e+6 
           3071        3.852e+6 
         3071.3        3.772e+6 
         3071.6        3.688e+6 
         3071.9        3.609e+6 
         3072.2        3.552e+6 
         3072.5        3.535e+6 
         3072.8         3.56e+6 
         3073.1        3.619e+6 
         3073.4        3.687e+6 
         3073.7         3.73e+6 
           3074        3.725e+6 
         3074.3        3.665e+6 
         3074.6        3.563e+6 
         3074.9        3.457e+6 
         3075.2        3.388e+6 
         3075.5        3.392e+6 
         3075.8        3.477e+6 
         3076.1        3.623e+6 
         3076.4        3.789e+6 
         3076.7        3.928e+6 
           3077          4.0e+6 
         3077.3        3.995e+6 
         3077.6        3.927e+6 
         3077.9        3.829e+6 
         3078.2        3.742e+6 
         3078.5        3.697e+6 
         3078.8        3.706e+6 
         3079.1        3.761e+6 
         3079.4        3.836e+6 
         3079.7        3.896e+6 
           3080        3.913e+6 
         3080.3        3.872e+6 
         3080.6        3.772e+6 
         3080.9        3.628e+6 
         3081.2        3.464e+6 
         3081.5        3.306e+6 
         3081.8        3.179e+6 
         3082.1        3.103e+6 
         3082.4        3.093e+6 
         3082.7        3.154e+6 
           3083        3.287e+6 
         3083.3        3.489e+6 
         3083.6        3.748e+6 
         3083.9        4.044e+6 
         3084.2         4.35e+6 
         3084.5         4.63e+6 
         3084.8        4.851e+6 
         3085.1        4.983e+6 
         3085.4        5.005e+6 
         3085.7        4.909e+6 
           3086        4.699e+6 
         3086.3        4.399e+6 
         3086.6        4.047e+6 
         3086.9        3.691e+6 
         3087.2         3.38e+6 
         3087.5        3.148e+6 
         3087.8        3.009e+6 
         3088.1        2.955e+6 
         3088.4        2.958e+6 
         3088.7        2.981e+6 
           3089         2.99e+6 
         3089.3         2.97e+6 
         3089.6        2.924e+6 
         3089.9        2.868e+6 
         3090.2        2.819e+6 
         3090.5         2.79e+6 
         3090.8        2.782e+6 
         3091.1        2.786e+6 
         3091.4        2.786e+6 
         3091.7        2.764e+6 
           3092         2.71e+6 
         3092.3         2.63e+6 
         3092.6        2.544e+6 
         3092.9        2.484e+6 
         3093.2        2.477e+6 
         3093.5        2.534e+6 
         3093.8        2.647e+6 
         3094.1        2.791e+6 
         3094.4        2.929e+6 
         3094.7        3.026e+6 
           3095        3.059e+6 
         3095.3         3.02e+6 
         3095.6        2.919e+6 
         3095.9        2.782e+6 
         3096.2        2.646e+6 
         3096.5        2.545e+6 
         3096.8        2.503e+6 
         3097.1         2.52e+6 
         3097.4        2.578e+6 
         3097.7        2.639e+6 
           3098         2.66e+6 
         3098.3        2.609e+6 
         3098.6        2.474e+6 
         3098.9        2.266e+6 
         3099.2        2.017e+6 
         3099.5        1.764e+6 
         3099.8        1.544e+6 
         3100.1        1.385e+6 
         3100.4        1.301e+6 
         3100.7        1.302e+6 
           3101        1.386e+6 
         3101.3        1.551e+6 
         3101.6        1.792e+6 
         3101.9        2.097e+6 
         3102.2        2.442e+6 
         3102.5        2.796e+6 
         3102.8        3.121e+6 
         3103.1        3.383e+6 
         3103.4        3.556e+6 
         3103.7        3.634e+6 
           3104        3.621e+6 
         3104.3        3.541e+6 
         3104.6        3.426e+6 
         3104.9        3.314e+6 
         3105.2        3.239e+6 
         3105.5        3.229e+6 
         3105.8        3.294e+6 
         3106.1        3.429e+6 
         3106.4        3.614e+6 
         3106.7        3.823e+6 
           3107        4.029e+6 
         3107.3        4.207e+6 
         3107.6        4.344e+6 
         3107.9         4.43e+6 
         3108.2        4.463e+6 
         3108.5        4.448e+6 
         3108.8        4.391e+6 
         3109.1        4.307e+6 
         3109.4        4.213e+6 
         3109.7        4.131e+6 
           3110        4.081e+6 
         3110.3         4.08e+6 
         3110.6        4.129e+6 
         3110.9         4.22e+6 
         3111.2        4.333e+6 
         3111.5        4.445e+6 
         3111.8         4.53e+6 
         3112.1        4.569e+6 
         3112.4        4.553e+6 
         3112.7        4.477e+6 
           3113        4.352e+6 
         3113.3        4.197e+6 
         3113.6        4.041e+6 
         3113.9        3.916e+6 
         3114.2        3.841e+6 
         3114.5         3.83e+6 
         3114.8        3.874e+6 
         3115.1        3.951e+6 
         3115.4        4.027e+6 
         3115.7        4.069e+6 
           3116        4.048e+6 
         3116.3        3.955e+6 
         3116.6        3.798e+6 
         3116.9        3.597e+6 
         3117.2        3.377e+6 
         3117.5        3.167e+6 
         3117.8        2.986e+6 
         3118.1        2.844e+6 
         3118.4        2.745e+6 
         3118.7        2.681e+6 
           3119        2.649e+6 
         3119.3        2.646e+6 
         3119.6        2.672e+6 
         3119.9        2.727e+6 
         3120.2        2.804e+6 
         3120.5         2.89e+6 
         3120.8        2.966e+6 
         3121.1        3.017e+6 
         3121.4        3.037e+6 
         3121.7        3.032e+6 
           3122        3.024e+6 
         3122.3        3.032e+6 
         3122.6        3.073e+6 
         3122.9        3.148e+6 
         3123.2        3.243e+6 
         3123.5        3.336e+6 
         3123.8        3.399e+6 
         3124.1        3.414e+6 
         3124.4        3.381e+6 
         3124.7        3.318e+6 
           3125        3.261e+6 
         3125.3        3.244e+6 
         3125.6        3.295e+6 
         3125.9        3.421e+6 
         3126.2        3.604e+6 
         3126.5         3.81e+6 
         3126.8        3.995e+6 
         3127.1        4.122e+6 
         3127.4        4.171e+6 
         3127.7        4.144e+6 
           3128        4.059e+6 
         3128.3        3.948e+6 
         3128.6        3.837e+6 
         3128.9        3.741e+6 
         3129.2        3.661e+6 
         3129.5        3.585e+6 
         3129.8        3.503e+6 
         3130.1        3.411e+6 
         3130.4        3.315e+6 
         3130.7        3.224e+6 
           3131        3.148e+6 
         3131.3         3.09e+6 
         3131.6        3.049e+6 
         3131.9        3.017e+6 
         3132.2         2.99e+6 
         3132.5        2.962e+6 
         3132.8        2.931e+6 
         3133.1        2.899e+6 
         3133.4        2.874e+6 
         3133.7        2.872e+6 
           3134        2.907e+6 
         3134.3        2.986e+6 
         3134.6        3.106e+6 
         3134.9        3.247e+6 
         3135.2        3.382e+6 
         3135.5         3.49e+6 
         3135.8         3.56e+6 
         3136.1        3.601e+6 
         3136.4        3.632e+6 
         3136.7        3.671e+6 
           3137        3.725e+6 
         3137.3        3.787e+6 
         3137.6        3.841e+6 
         3137.9        3.873e+6 
         3138.2        3.877e+6 
         3138.5        3.855e+6 
         3138.8        3.825e+6 
         3139.1        3.802e+6 
         3139.4        3.803e+6 
         3139.7        3.838e+6 
           3140        3.908e+6 
         3140.3        4.001e+6 
         3140.6        4.099e+6 
         3140.9        4.174e+6 
         3141.2        4.198e+6 
         3141.5         4.15e+6 
         3141.8        4.018e+6 
         3142.1        3.802e+6 
         3142.4        3.513e+6 
         3142.7         3.17e+6 
           3143          2.8e+6 
         3143.3        2.434e+6 
         3143.6        2.105e+6 
         3143.9        1.844e+6 
         3144.2        1.676e+6 
         3144.5        1.614e+6 
         3144.8        1.656e+6 
         3145.1        1.787e+6 
         3145.4        1.979e+6 
         3145.7        2.197e+6 
           3146        2.408e+6 
         3146.3         2.59e+6 
         3146.6        2.736e+6 
         3146.9        2.855e+6 
         3147.2        2.964e+6 
         3147.5        3.084e+6 
         3147.8        3.224e+6 
         3148.1        3.386e+6 
         3148.4        3.556e+6 
         3148.7        3.718e+6 
           3149         3.86e+6 
         3149.3        3.975e+6 
         3149.6        4.069e+6 
         3149.9        4.149e+6 
         3150.2        4.219e+6 
         3150.5        4.275e+6 
         3150.8        4.308e+6 
         3151.1        4.313e+6 
         3151.4        4.291e+6 
         3151.7        4.253e+6 
           3152        4.214e+6 
         3152.3        4.186e+6 
         3152.6        4.173e+6 
         3152.9        4.163e+6 
         3153.2        4.142e+6 
         3153.5        4.095e+6 
         3153.8        4.014e+6 
         3154.1        3.906e+6 
         3154.4        3.784e+6 
         3154.7        3.668e+6 
           3155        3.566e+6 
         3155.3        3.479e+6 
         3155.6        3.398e+6 
         3155.9        3.307e+6 
         3156.2        3.191e+6 
         3156.5        3.042e+6 
         3156.8        2.859e+6 
         3157.1        2.656e+6 
         3157.4        2.449e+6 
         3157.7        2.261e+6 
           3158         2.11e+6 
         3158.3        2.008e+6 
         3158.6        1.961e+6 
         3158.9        1.965e+6 
         3159.2        2.004e+6 
         3159.5        2.059e+6 
         3159.8        2.104e+6 
         3160.1        2.125e+6 
         3160.4        2.115e+6 
         3160.7        2.086e+6 
           3161        2.056e+6 
         3161.3        2.049e+6 
         3161.6        2.086e+6 
         3161.9        2.179e+6 
         3162.2        2.326e+6 
         3162.5        2.512e+6 
         3162.8        2.712e+6 
         3163.1        2.894e+6 
         3163.4        3.033e+6 
         3163.7        3.111e+6 
           3164        3.128e+6 
         3164.3        3.101e+6 
         3164.6        3.058e+6 
         3164.9        3.026e+6 
         3165.2        3.026e+6 
         3165.5        3.066e+6 
         3165.8        3.144e+6 
         3166.1        3.245e+6 
         3166.4        3.348e+6 
         3166.7        3.429e+6 
           3167        3.466e+6 
         3167.3        3.449e+6 
         3167.6         3.38e+6 
         3167.9        3.276e+6 
         3168.2        3.169e+6 
         3168.5        3.092e+6 
         3168.8        3.078e+6 
         3169.1         3.14e+6 
         3169.4        3.276e+6 
         3169.7        3.469e+6 
           3170        3.687e+6 
         3170.3        3.902e+6 
         3170.6        4.095e+6 
         3170.9        4.255e+6 
         3171.2        4.382e+6 
         3171.5        4.482e+6 
         3171.8        4.555e+6 
         3172.1        4.598e+6 
         3172.4        4.604e+6 
         3172.7        4.565e+6 
           3173        4.479e+6 
         3173.3        4.356e+6 
         3173.6        4.211e+6 
         3173.9        4.066e+6 
         3174.2        3.945e+6 
         3174.5        3.869e+6 
         3174.8        3.856e+6 
         3175.1        3.914e+6 
         3175.4        4.033e+6 
         3175.7        4.188e+6 
           3176        4.343e+6 
         3176.3        4.452e+6 
         3176.6         4.48e+6 
         3176.9        4.411e+6 
         3177.2        4.243e+6 
         3177.5        3.997e+6 
         3177.8        3.699e+6 
         3178.1        3.381e+6 
