# Granada HRES Library
# atmosphere = Spectrum  (atmosphere model used)
# feh = 3  (value for [Fe/H] for the model.)
# logg = 0 log(cm/s2) (value for Log(G) for the model.)
# teff = 4750 K (value for the effective temperature for the model. Temperatures are given in K)
#
# column 1: WAVELENGTH (ANGSTROM), Wavelength in Angstrom
# column 2: FLUX (ERG/CM2/S/A), Flux in erg/cm2/s/A
         3000.2           956.7 
         3000.5            1027 
         3000.8            1131 
         3001.1            1284 
         3001.4            1500 
         3001.7            1826 
           3002            2310 
         3002.3            3035 
         3002.6            4099 
         3002.9            5608 
         3003.2            7650 
         3003.5           10260 
         3003.8           13400 
         3004.1           16900 
         3004.4           20510 
         3004.7           23840 
           3005           26510 
         3005.3           28150 
         3005.6           28490 
         3005.9           27450 
         3006.2           25170 
         3006.5           21960 
         3006.8           18260 
         3007.1           14540 
         3007.4           11240 
         3007.7            8664 
           3008            7001 
         3008.3            6325 
         3008.6            6625 
         3008.9            7823 
         3009.2            9776 
         3009.5           12280 
         3009.8           15060 
         3010.1           17800 
         3010.4           20180 
         3010.7           22000 
           3011           23150 
         3011.3           23710 
         3011.6           23870 
         3011.9           23890 
         3012.2           23960 
         3012.5           24170 
         3012.8           24500 
         3013.1           24810 
         3013.4           24940 
         3013.7           24750 
           3014           24160 
         3014.3           23120 
         3014.6           21690 
         3014.9           19930 
         3015.2           17960 
         3015.5           15900 
         3015.8           13840 
         3016.1           11870 
         3016.4           10040 
         3016.7            8387 
           3017            6922 
         3017.3            5649 
         3017.6            4559 
         3017.9            3639 
         3018.2            2880 
         3018.5            2252 
         3018.8            1746 
         3019.1            1335 
         3019.4            1011 
         3019.7           763.2 
           3020             591 
         3020.3           493.1 
         3020.6           471.9 
         3020.9           532.5 
         3021.2           674.3 
         3021.5           892.7 
         3021.8            1177 
         3022.1            1511 
         3022.4            1869 
         3022.7            2225 
           3023            2553 
         3023.3            2833 
         3023.6            3052 
         3023.9            3208 
         3024.2            3317 
         3024.5            3422 
         3024.8            3596 
         3025.1            3942 
         3025.4            4587 
         3025.7            5698 
           3026            7420 
         3026.3            9857 
         3026.6           13040 
         3026.9           16900 
         3027.2           21200 
         3027.5           25660 
         3027.8           29860 
         3028.1           33430 
         3028.4           36060 
         3028.7           37590 
           3029           38040 
         3029.3           37600 
         3029.6           36590 
         3029.9           35330 
         3030.2           34220 
         3030.5           33600 
         3030.8           33860 
         3031.1           35310 
         3031.4           38190 
         3031.7           42500 
           3032           47990 
         3032.3           54150 
         3032.6           60280 
         3032.9           65650 
         3033.2           69630 
         3033.5           71800 
         3033.8           71960 
         3034.1           70170 
         3034.4           66630 
         3034.7           61610 
           3035           55460 
         3035.3           48510 
         3035.6           41140 
         3035.9           33770 
         3036.2           26830 
         3036.5           20700 
         3036.8           15740 
         3037.1           12180 
         3037.4           10090 
         3037.7            9433 
           3038           10060 
         3038.3           11710 
         3038.6           14070 
         3038.9           16770 
         3039.2           19450 
         3039.5           21840 
         3039.8           23670 
         3040.1           24830 
         3040.4           25300 
         3040.7           25190 
           3041           24690 
         3041.3           24090 
         3041.6           23740 
         3041.9           23930 
         3042.2           24850 
         3042.5           26510 
         3042.8           28740 
         3043.1           31170 
         3043.4           33370 
         3043.7           34940 
           3044           35590 
         3044.3           35200 
         3044.6           33800 
         3044.9           31500 
         3045.2           28530 
         3045.5           25140 
         3045.8           21540 
         3046.1           17960 
         3046.4           14630 
         3046.7           11750 
           3047            9493 
         3047.3            8011 
         3047.6            7389 
         3047.9            7610 
         3048.2            8577 
         3048.5           10100 
         3048.8           11980 
         3049.1           14010 
         3049.4           16090 
         3049.7           18290 
           3050           20850 
         3050.3           24100 
         3050.6           28350 
         3050.9           33690 
         3051.2           39910 
         3051.5           46360 
         3051.8           52170 
         3052.1           56370 
         3052.4           58180 
         3052.7           57310 
           3053           53980 
         3053.3           48920 
         3053.6           43140 
         3053.9           37650 
         3054.2           33200 
         3054.5           30110 
         3054.8           28270 
         3055.1           27260 
         3055.4           26490 
         3055.7           25420 
           3056           23740 
         3056.3           21340 
         3056.6           18360 
         3056.9           15110 
         3057.2           11940 
         3057.5            9139 
         3057.8            6922 
         3058.1            5408 
         3058.4            4660 
         3058.7            4762 
           3059            5748 
         3059.3            7719 
         3059.6           10740 
         3059.9           14860 
         3060.2           20020 
         3060.5           26030 
         3060.8           32570 
         3061.1           39190 
         3061.4           45360 
         3061.7           50560 
           3062           54340 
         3062.3           56390 
         3062.6           56680 
         3062.9           55410 
         3063.2           53000 
         3063.5           50000 
         3063.8           46930 
         3064.1           44140 
         3064.4           41750 
         3064.7           39680 
           3065           37630 
         3065.3           35390 
         3065.6           32840 
         3065.9           30130 
         3066.2           27680 
         3066.5           26140 
         3066.8           26290 
         3067.1           28920 
         3067.4           34440 
         3067.7           43030 
           3068           54330 
         3068.3           67520 
         3068.6           81390 
         3068.9           94500 
         3069.2          105500 
         3069.5          113400 
         3069.8          117600 
         3070.1          118100 
         3070.4          115300 
         3070.7          109700 
           3071          102100 
         3071.3           93170 
         3071.6           83770 
         3071.9           74720 
         3072.2           66800 
         3072.5           60590 
         3072.8           56360 
         3073.1           53840 
         3073.4           52500 
         3073.7           51630 
           3074           50600 
         3074.3           49180 
         3074.6           47550 
         3074.9           46260 
         3075.2           46110 
         3075.5           47620 
         3075.8           50970 
         3076.1           55740 
         3076.4           61060 
         3076.7           65800 
           3077           68980 
         3077.3           70070 
         3077.6           69140 
         3077.9           66870 
         3078.2           64330 
         3078.5           62600 
         3078.8           62510 
         3079.1           64370 
         3079.4           67840 
         3079.7           72180 
           3080           76420 
         3080.3           79640 
         3080.6           81240 
         3080.9           80960 
         3081.2           79000 
         3081.5           75780 
         3081.8           72090 
         3082.1           68700 
         3082.4           66360 
         3082.7           65910 
           3083           68160 
         3083.3           73810 
         3083.6           83330 
         3083.9           96700 
         3084.2          113200 
         3084.5          131400 
         3084.8          149100 
         3085.1          163700 
         3085.4          172900 
         3085.7          174900 
           3086          169300 
         3086.3          156900 
         3086.6          139600 
         3086.9          120000 
         3087.2          100800 
         3087.5           84020 
         3087.8           71120 
         3088.1           62480 
         3088.4           57710 
         3088.7           55880 
           3089           55890 
         3089.3           56680 
         3089.6           57390 
         3089.9           57580 
         3090.2           57070 
         3090.5           55880 
         3090.8           54160 
         3091.1           52110 
         3091.4           49950 
         3091.7           47950 
           3092           46360 
         3092.3           45550 
         3092.6           45990 
         3092.9           48160 
         3093.2           52320 
         3093.5           58390 
         3093.8           65780 
         3094.1           73530 
         3094.4           80410 
         3094.7           85360 
           3095           87750 
         3095.3           87510 
         3095.6           85170 
         3095.9           81660 
         3096.2           78030 
         3096.5           75160 
         3096.8           73390 
         3097.1           72520 
         3097.4           71850 
         3097.7           70440 
           3098           67430 
         3098.3           62320 
         3098.6           55220 
         3098.9           46710 
         3099.2           37700 
         3099.5           29130 
         3099.8           21820 
         3100.1           16270 
         3100.4           12810 
         3100.7           11510 
           3101           12450 
         3101.3           15640 
         3101.6           21090 
         3101.9           28660 
         3102.2           38060 
         3102.5           48730 
         3102.8           59900 
         3103.1           70640 
         3103.4           80160 
         3103.7           87640 
           3104           92790 
         3104.3           95720 
         3104.6           97010 
         3104.9           97630 
         3105.2           98830 
         3105.5          101900 
         3105.8          107600 
         3106.1          116500 
         3106.4          128100 
         3106.7          141700 
           3107          155900 
         3107.3          169500 
         3107.6          181200 
         3107.9          189800 
         3108.2          194600 
         3108.5          195200 
         3108.8          191600 
         3109.1          184500 
         3109.4          175000 
         3109.7          164900 
           3110          156600 
         3110.3          151800 
         3110.6          151700 
         3110.9          156400 
         3111.2          164600 
         3111.5          174100 
         3111.8          182400 
         3112.1          187200 
         3112.4          187200 
         3112.7          182300 
           3113          173700 
         3113.3          163100 
         3113.6          152800 
         3113.9          144400 
         3114.2          138900 
         3114.5          136200 
         3114.8          135500 
         3115.1          135400 
         3115.4          134700 
         3115.7          132400 
           3116          128100 
         3116.3          121900 
         3116.6          114300 
         3116.9          106000 
         3117.2           97750 
         3117.5           90050 
         3117.8           83440 
         3118.1           78260 
         3118.4           74660 
         3118.7           72660 
           3119           72180 
         3119.3           73080 
         3119.6           75210 
         3119.9           78460 
         3120.2           82460 
         3120.5           86840 
         3120.8           90950 
         3121.1           94180 
         3121.4           96260 
         3121.7           97300 
           3122           97760 
         3122.3           98410 
         3122.6           99920 
         3122.9          102600 
         3123.2          106300 
         3123.5          110300 
         3123.8          113300 
         3124.1          114500 
         3124.4          113300 
         3124.7          110300 
           3125          106700 
         3125.3          104300 
         3125.6          104800 
         3125.9          109300 
         3126.2          117400 
         3126.5          127900 
         3126.8          139000 
         3127.1          148400 
         3127.4          154500 
         3127.7          156400 
           3128          154200 
         3128.3          148400 
         3128.6          140500 
         3128.9          131800 
         3129.2          123200 
         3129.5          115500 
         3129.8          109100 
         3130.1          104000 
         3130.4          100200 
         3130.7           97320 
           3131           95010 
         3131.3           92720 
         3131.6           89880 
         3131.9           86100 
         3132.2           81230 
         3132.5           75690 
         3132.8           70140 
         3133.1           65600 
         3133.4           63260 
         3133.7           64020 
           3134           68480 
         3134.3           76530 
         3134.6           87340 
         3134.9           99590 
         3135.2          111700 
         3135.5          122300 
         3135.8          130600 
         3136.1          136400 
         3136.4          140100 
         3136.7          142400 
           3137          144200 
         3137.3          145900 
         3137.6          148100 
         3137.9          150700 
         3138.2          153800 
         3138.5          157500 
         3138.8          161800 
         3139.1          166900 
         3139.4          172900 
         3139.7          179800 
           3140          187300 
         3140.3          194700 
         3140.6          200900 
         3140.9          204500 
         3141.2          203900 
         3141.5          198400 
         3141.8          187800 
         3142.1          172600 
         3142.4          154300 
         3142.7          134300 
           3143          114500 
         3143.3           96310 
         3143.6           80960 
         3143.9           69280 
         3144.2           61480 
         3144.5           57510 
         3144.8           56970 
         3145.1           59080 
         3145.4           62920 
         3145.7           67560 
           3146           72330 
         3146.3           77030 
         3146.6           82000 
         3146.9           88060 
         3147.2           96040 
         3147.5          106600 
         3147.8          120100 
         3148.1          135800 
         3148.4          152700 
         3148.7          169400 
           3149          184500 
         3149.3          196900 
         3149.6          206100 
         3149.9          212000 
         3150.2          214400 
         3150.5          213600 
         3150.8          210000 
         3151.1          204300 
         3151.4          197200 
         3151.7          189900 
           3152          183500 
         3152.3          178500 
         3152.6          175100 
         3152.9          173000 
         3153.2          171400 
         3153.5          169700 
         3153.8          167400 
         3154.1          164400 
         3154.4          161000 
         3154.7          157300 
           3155          153800 
         3155.3          150300 
         3155.6          146500 
         3155.9          142100 
         3156.2          136700 
         3156.5          129800 
         3156.8          121500 
         3157.1          112300 
         3157.4          102900 
         3157.7           94050 
           3158           86580 
         3158.3           80930 
         3158.6           77080 
         3158.9           74580 
         3159.2           72840 
         3159.5           71040 
         3159.8           68490 
         3160.1           64800 
         3160.4           60220 
         3160.7           55380 
           3161           51290 
         3161.3           49000 
         3161.6           49470 
         3161.9           53290 
         3162.2           60390 
         3162.5           70190 
         3162.8           81570 
         3163.1           93150 
         3163.4          103500 
         3163.7          111400 
           3164          116400 
         3164.3          118900 
         3164.6          119600 
         3164.9          119700 
         3165.2          120300 
         3165.5          122000 
         3165.8          124900 
         3166.1          128400 
         3166.4          131400 
         3166.7          132600 
           3167          131300 
         3167.3          127100 
         3167.6          120800 
         3167.9          113900 
         3168.2          108300 
         3168.5          105900 
         3168.8          108100 
         3169.1          115300 
         3169.4          126800 
         3169.7          141400 
           3170          157400 
         3170.3          173400 
         3170.6          188400 
         3170.9          202200 
         3171.2          214700 
         3171.5          226100 
         3171.8          236400 
         3172.1          245100 
         3172.4          251500 
         3172.7          255100 
           3173          255600 
         3173.3          253200 
         3173.6          248800 
         3173.9          243800 
         3174.2          239600 
         3174.5          237700 
         3174.8          239000 
         3175.1          243900 
         3175.4          251500 
         3175.7          259900 
           3176          266600 
         3176.3          269200 
         3176.6          265800 
         3176.9          255600 
         3177.2          239400 
         3177.5          218900 
         3177.8          196300 
         3178.1          173800 
