# Granada HRES Library
# atmosphere = Phoenix  (atmosphere model used)
# feh = 0  (value for [Fe/H] for the model.)
# logg = 3 log(cm/s2) (value for Log(G) for the model.)
# teff = 4000 K (value for the effective temperature for the model. Temperatures are given in K)
#
# column 1: WAVELENGTH (ANGSTROM), Wavelength in Angstrom
# column 2: FLUX (ERG/CM2/S/A), Flux in erg/cm2/s/A
         3000.2            1648 
         3000.5            1516 
         3000.8            1428 
         3001.1            1378 
         3001.4            1348 
         3001.7            1313 
           3002            1264 
         3002.3            1213 
         3002.6            1189 
         3002.9            1226 
         3003.2            1350 
         3003.5            1568 
         3003.8            1862 
         3004.1            2199 
         3004.4            2539 
         3004.7            2844 
           3005            3081 
         3005.3            3227 
         3005.6            3269 
         3005.9            3205 
         3006.2            3051 
         3006.5            2835 
         3006.8            2597 
         3007.1            2380 
         3007.4            2219 
         3007.7            2138 
           3008            2145 
         3008.3            2232 
         3008.6            2384 
         3008.9            2586 
         3009.2            2827 
         3009.5            3095 
         3009.8            3361 
         3010.1            3575 
         3010.4            3681 
         3010.7            3645 
           3011            3486 
         3011.3            3268 
         3011.6            3076 
         3011.9            2975 
         3012.2            2981 
         3012.5            3066 
         3012.8            3175 
         3013.1            3260 
         3013.4            3296 
         3013.7            3283 
           3014            3236 
         3014.3            3179 
         3014.6            3134 
         3014.9            3116 
         3015.2            3127 
         3015.5            3162 
         3015.8            3209 
         3016.1            3255 
         3016.4            3285 
         3016.7            3283 
           3017            3236 
         3017.3            3146 
         3017.6            3025 
         3017.9            2884 
         3018.2            2731 
         3018.5            2559 
         3018.8            2362 
         3019.1            2138 
         3019.4            1892 
         3019.7            1639 
           3020            1405 
         3020.3            1224 
         3020.6            1130 
         3020.9            1147 
         3021.2            1282 
         3021.5            1516 
         3021.8            1811 
         3022.1            2114 
         3022.4            2373 
         3022.7            2543 
           3023            2603 
         3023.3            2552 
         3023.6            2420 
         3023.9            2255 
         3024.2            2100 
         3024.5            1983 
         3024.8            1904 
         3025.1            1850 
         3025.4            1815 
         3025.7            1806 
           3026            1841 
         3026.3            1928 
         3026.6            2056 
         3026.9            2200 
         3027.2            2332 
         3027.5            2440 
         3027.8            2530 
         3028.1            2621 
         3028.4            2736 
         3028.7            2883 
           3029            3051 
         3029.3            3210 
         3029.6            3330 
         3029.9            3389 
         3030.2            3391 
         3030.5            3372 
         3030.8            3388 
         3031.1            3497 
         3031.4            3730 
         3031.7            4056 
           3032            4391 
         3032.3            4620 
         3032.6            4656 
         3032.9            4476 
         3033.2            4133 
         3033.5            3730 
         3033.8            3378 
         3034.1            3154 
         3034.4            3085 
         3034.7            3143 
           3035            3262 
         3035.3            3365 
         3035.6            3388 
         3035.9            3304 
         3036.2            3123 
         3036.5            2887 
         3036.8            2653 
         3037.1            2486 
         3037.4            2432 
         3037.7            2504 
           3038            2675 
         3038.3            2891 
         3038.6            3102 
         3038.9            3281 
         3039.2            3423 
         3039.5            3529 
         3039.8            3597 
         3040.1            3611 
         3040.4            3555 
         3040.7            3433 
           3041            3271 
         3041.3            3121 
         3041.6            3039 
         3041.9            3067 
         3042.2            3211 
         3042.5            3435 
         3042.8            3682 
         3043.1            3894 
         3043.4            4038 
         3043.7            4116 
           3044            4153 
         3044.3            4182 
         3044.6            4230 
         3044.9            4304 
         3045.2            4385 
         3045.5            4430 
         3045.8            4383 
         3046.1            4204 
         3046.4            3887 
         3046.7            3473 
           3047            3035 
         3047.3            2660 
         3047.6            2415 
         3047.9            2335 
         3048.2            2418 
         3048.5            2635 
         3048.8            2931 
         3049.1            3237 
         3049.4            3480 
         3049.7            3605 
           3050            3600 
         3050.3            3494 
         3050.6            3347 
         3050.9            3217 
         3051.2            3137 
         3051.5            3111 
         3051.8            3122 
         3052.1            3143 
         3052.4            3149 
         3052.7            3119 
           3053            3045 
         3053.3            2936 
         3053.6            2817 
         3053.9            2717 
         3054.2            2655 
         3054.5            2636 
         3054.8            2648 
         3055.1            2669 
         3055.4            2677 
         3055.7            2658 
           3056            2615 
         3056.3            2558 
         3056.6            2506 
         3056.9            2475 
         3057.2            2471 
         3057.5            2488 
         3057.8            2506 
         3058.1            2504 
         3058.4            2477 
         3058.7            2448 
           3059            2463 
         3059.3            2572 
         3059.6            2799 
         3059.9            3131 
         3060.2            3517 
         3060.5            3887 
         3060.8            4179 
         3061.1            4356 
         3061.4            4412 
         3061.7            4360 
           3062            4217 
         3062.3            3990 
         3062.6            3682 
         3062.9            3314 
         3063.2            2933 
         3063.5            2600 
         3063.8            2368 
         3064.1            2258 
         3064.4            2250 
         3064.7            2293 
           3065            2338 
         3065.3            2356 
         3065.6            2353 
         3065.9            2355 
         3066.2            2389 
         3066.5            2470 
         3066.8            2590 
         3067.1            2735 
         3067.4            2898 
         3067.7            3083 
           3068            3294 
         3068.3            3519 
         3068.6            3720 
         3068.9            3843 
         3069.2            3847 
         3069.5            3730 
         3069.8            3534 
         3070.1            3337 
         3070.4            3213 
         3070.7            3212 
           3071            3343 
         3071.3            3587 
         3071.6            3911 
         3071.9            4279 
         3072.2            4652 
         3072.5            4985 
         3072.8            5232 
         3073.1            5361 
         3073.4            5373 
         3073.7            5294 
           3074            5162 
         3074.3            5006 
         3074.6            4853 
         3074.9            4739 
         3075.2            4713 
         3075.5            4820 
         3075.8            5064 
         3076.1            5387 
         3076.4            5683 
         3076.7            5842 
           3077            5813 
         3077.3            5619 
         3077.6            5340 
         3077.9            5067 
         3078.2            4865 
         3078.5            4743 
         3078.8            4666 
         3079.1            4579 
         3079.4            4436 
         3079.7            4216 
           3080            3928 
         3080.3            3599 
         3080.6            3266 
         3080.9            2971 
         3081.2            2751 
         3081.5            2631 
         3081.8            2619 
         3082.1            2693 
         3082.4            2808 
         3082.7            2913 
           3083            2972 
         3083.3            2985 
         3083.6            2988 
         3083.9            3030 
         3084.2            3149 
         3084.5            3358 
         3084.8            3642 
         3085.1            3959 
         3085.4            4257 
         3085.7            4490 
           3086            4651 
         3086.3            4777 
         3086.6            4935 
         3086.9            5187 
         3087.2            5554 
         3087.5            5999 
         3087.8            6425 
         3088.1            6700 
         3088.4            6709 
         3088.7            6408 
           3089            5852 
         3089.3            5175 
         3089.6            4530 
         3089.9            4021 
         3090.2            3669 
         3090.5            3426 
         3090.8            3225 
         3091.1            3012 
         3091.4            2773 
         3091.7            2527 
           3092            2316 
         3092.3            2194 
         3092.6            2211 
         3092.9            2392 
         3093.2            2723 
         3093.5            3152 
         3093.8            3605 
         3094.1            4011 
         3094.4            4317 
         3094.7            4494 
           3095            4530 
         3095.3            4437 
         3095.6            4252 
         3095.9            4047 
         3096.2            3923 
         3096.5            3982 
         3096.8            4282 
         3097.1            4797 
         3097.4            5400 
         3097.7            5896 
           3098            6097 
         3098.3            5905 
         3098.6            5357 
         3098.9            4603 
         3099.2            3844 
         3099.5            3246 
         3099.8            2895 
         3100.1            2781 
         3100.4            2830 
         3100.7            2953 
           3101            3095 
         3101.3            3499 
         3101.6            3893 
         3101.9            4467 
         3102.2            5184 
         3102.5            5932 
         3102.8            6580 
         3103.1            7041 
         3103.4            7303 
         3103.7            7413 
           3104            7418 
         3104.3            7316 
         3104.6            7068 
         3104.9            6631 
         3105.2            6023 
         3105.5            5317 
         3105.8            4627 
         3106.1            4051 
         3106.4            3653 
         3106.7            3453 
           3107            3441 
         3107.3            3580 
         3107.6            3813 
         3107.9            4077 
         3108.2            4308 
         3108.5            4464 
         3108.8            4534 
         3109.1            4542 
         3109.4            4547 
         3109.7            4617 
           3110            4805 
         3110.3            5116 
         3110.6            5491 
         3110.9            5816 
         3111.2            5970 
         3111.5            5877 
         3111.8            5551 
         3112.1            5084 
         3112.4            4606 
         3112.7            4236 
           3113            4057 
         3113.3            4106 
         3113.6            4386 
         3113.9            4880 
         3114.2            5557 
         3114.5            6368 
         3114.8            7226 
         3115.1            7999 
         3115.4            8532 
         3115.7            8693 
           3116            8442 
         3116.3            7870 
         3116.6            7175 
         3116.9            6595 
         3117.2            6294 
         3117.5            6315 
         3117.8            6572 
         3118.1            6911 
         3118.4            7183 
         3118.7            7301 
           3119            7272 
         3119.3            7178 
         3119.6            7131 
         3119.9            7213 
         3120.2            7410 
         3120.5            7610 
         3120.8            7648 
         3121.1            7421 
         3121.4            6964 
         3121.7            6452 
           3122            6118 
         3122.3            6130 
         3122.6            6504 
         3122.9            7094 
         3123.2            7674 
         3123.5            8043 
         3123.8            8129 
         3124.1            8002 
         3124.4            7819 
         3124.7            7723 
           3125            7773 
         3125.3            7931 
         3125.6            8112 
         3125.9            8245 
         3126.2            8304 
         3126.5            8279 
         3126.8            8148 
         3127.1            7869 
         3127.4            7414 
         3127.7            6811 
           3128            6142 
         3128.3            5516 
         3128.6            5023 
         3128.9            4706 
         3129.2            4562 
         3129.5            4558 
         3129.8            4667 
         3130.1            4898 
         3130.4            5287 
         3130.7            5863 
           3131            6585 
         3131.3            7330 
         3131.6            7914 
         3131.9            8183 
         3132.2            8073 
         3132.5            7647 
         3132.8            7049 
         3133.1            6454 
         3133.4            6008 
         3133.7            5812 
           3134            5898 
         3134.3            6201 
         3134.6            6575 
         3134.9            6840 
         3135.2            6878 
         3135.5            6692 
         3135.8            6405 
         3136.1            6182 
         3136.4            6159 
         3136.7            6395 
           3137            6871 
         3137.3            7503 
         3137.6            8169 
         3137.9            8735 
         3138.2            9094 
         3138.5            9201 
         3138.8            9098 
         3139.1            8887 
         3139.4            8707 
         3139.7            8681 
           3140            8872 
         3140.3            9255 
         3140.6            9714 
         3140.9           10110 
         3141.2           10350 
         3141.5           10440 
         3141.8           10430 
         3142.1           10320 
         3142.4           10070 
         3142.7            9597 
           3143            8899 
         3143.3            8076 
         3143.6            7283 
         3143.9            6638 
         3144.2            6175 
         3144.5            5855 
         3144.8            5620 
         3145.1            5433 
         3145.4            5283 
         3145.7            5175 
           3146            5125 
         3146.3            5156 
         3146.6            5302 
         3146.9            5605 
         3147.2            6105 
         3147.5            6840 
         3147.8            7828 
         3148.1            9027 
         3148.4           10300 
         3148.7           11430 
           3149           12200 
         3149.3           12460 
         3149.6           12220 
         3149.9           11590 
         3150.2           10740 
         3150.5            9785 
         3150.8            8828 
         3151.1            7936 
         3151.4            7163 
         3151.7            6536 
           3152            6054 
         3152.3            5691 
         3152.6            5420 
         3152.9            5241 
         3153.2            5193 
         3153.5            5352 
         3153.8            5792 
         3154.1            6516 
         3154.4            7415 
         3154.7            8263 
           3155            8829 
         3155.3            8980 
         3155.6            8758 
         3155.9            8338 
         3156.2            7918 
         3156.5            7628 
         3156.8            7507 
         3157.1            7526 
         3157.4            7646 
         3157.7            7859 
           3158            8183 
         3158.3            8642 
         3158.6            9203 
         3158.9            9757 
         3159.2           10130 
         3159.5           10170 
         3159.8            9806 
         3160.1            9172 
         3160.4            8482 
         3160.7            7967 
           3161            7790 
         3161.3            8043 
         3161.6            8790 
         3161.9           10080 
         3162.2           11870 
         3162.5           13950 
         3162.8           15910 
         3163.1           17270 
         3163.4           17710 
         3163.7           17250 
           3164           16160 
         3164.3           14790 
         3164.6           13420 
         3164.9           12220 
         3165.2           11280 
         3165.5           10670 
         3165.8           10470 
         3166.1           10710 
         3166.4           11450 
         3166.7           12560 
           3167           13810 
         3167.3           14910 
         3167.6           15540 
         3167.9           15540 
         3168.2           15010 
         3168.5           14240 
         3168.8           13610 
         3169.1           13330 
         3169.4           13420 
         3169.7           13670 
           3170           13860 
         3170.3           13900 
         3170.6           13860 
         3170.9           13990 
         3171.2           14480 
         3171.5           15370 
         3171.8           16490 
         3172.1           17520 
         3172.4           18300 
         3172.7           18930 
           3173           19780 
         3173.3           21250 
         3173.6           23390 
         3173.9           25850 
         3174.2           27980 
         3174.5           29270 
         3174.8           29590 
         3175.1           29170 
         3175.4           28280 
         3175.7           27020 
           3176           25380 
         3176.3           23340 
         3176.6           21050 
         3176.9           18820 
         3177.2           16980 
         3177.5           15730 
         3177.8           15080 
         3178.1           14790 
