# Granada HRES Library
# atmosphere = Spectrum  (atmosphere model used)
# feh = -10  (value for [Fe/H] for the model.)
# logg = 3.5 log(cm/s2) (value for Log(G) for the model.)
# teff = 5500 K (value for the effective temperature for the model. Temperatures are given in K)
#
# column 1: WAVELENGTH (ANGSTROM), Wavelength in Angstrom
# column 2: FLUX (ERG/CM2/S/A), Flux in erg/cm2/s/A
         3000.2        1.641e+6 
         3000.5         1.66e+6 
         3000.8        1.682e+6 
         3001.1        1.704e+6 
         3001.4        1.723e+6 
         3001.7        1.739e+6 
           3002        1.756e+6 
         3002.3        1.783e+6 
         3002.6         1.83e+6 
         3002.9        1.908e+6 
         3003.2        2.023e+6 
         3003.5        2.176e+6 
         3003.8        2.358e+6 
         3004.1        2.554e+6 
         3004.4        2.747e+6 
         3004.7        2.919e+6 
           3005        3.052e+6 
         3005.3        3.134e+6 
         3005.6         3.16e+6 
         3005.9         3.13e+6 
         3006.2        3.052e+6 
         3006.5        2.939e+6 
         3006.8        2.807e+6 
         3007.1        2.676e+6 
         3007.4        2.563e+6 
         3007.7        2.485e+6 
           3008        2.451e+6 
         3008.3        2.467e+6 
         3008.6        2.531e+6 
         3008.9        2.639e+6 
         3009.2        2.779e+6 
         3009.5        2.936e+6 
         3009.8        3.091e+6 
         3010.1        3.225e+6 
         3010.4        3.319e+6 
         3010.7        3.367e+6 
           3011        3.366e+6 
         3011.3        3.328e+6 
         3011.6        3.267e+6 
         3011.9        3.202e+6 
         3012.2        3.143e+6 
         3012.5        3.096e+6 
         3012.8        3.062e+6 
         3013.1        3.036e+6 
         3013.4        3.013e+6 
         3013.7        2.992e+6 
           3014         2.97e+6 
         3014.3         2.95e+6 
         3014.6        2.933e+6 
         3014.9        2.921e+6 
         3015.2        2.913e+6 
         3015.5        2.908e+6 
         3015.8        2.903e+6 
         3016.1        2.894e+6 
         3016.4        2.876e+6 
         3016.7        2.844e+6 
           3017        2.797e+6 
         3017.3        2.731e+6 
         3017.6        2.645e+6 
         3017.9        2.538e+6 
         3018.2        2.408e+6 
         3018.5        2.256e+6 
         3018.8        2.085e+6 
         3019.1        1.901e+6 
         3019.4        1.715e+6 
         3019.7        1.544e+6 
           3020        1.407e+6 
         3020.3        1.325e+6 
         3020.6        1.317e+6 
         3020.9        1.394e+6 
         3021.2        1.557e+6 
         3021.5        1.791e+6 
         3021.8        2.071e+6 
         3022.1        2.365e+6 
         3022.4        2.639e+6 
         3022.7        2.863e+6 
           3023         3.02e+6 
         3023.3        3.099e+6 
         3023.6        3.105e+6 
         3023.9        3.047e+6 
         3024.2        2.942e+6 
         3024.5        2.807e+6 
         3024.8        2.664e+6 
         3025.1        2.536e+6 
         3025.4        2.447e+6 
         3025.7        2.417e+6 
           3026        2.458e+6 
         3026.3        2.568e+6 
         3026.6        2.735e+6 
         3026.9        2.932e+6 
         3027.2        3.132e+6 
         3027.5        3.306e+6 
         3027.8        3.434e+6 
         3028.1        3.506e+6 
         3028.4         3.52e+6 
         3028.7        3.484e+6 
           3029        3.411e+6 
         3029.3        3.315e+6 
         3029.6        3.211e+6 
         3029.9        3.111e+6 
         3030.2        3.023e+6 
         3030.5        2.956e+6 
         3030.8        2.913e+6 
         3031.1        2.898e+6 
         3031.4        2.911e+6 
         3031.7        2.948e+6 
           3032        3.004e+6 
         3032.3        3.071e+6 
         3032.6        3.139e+6 
         3032.9        3.205e+6 
         3033.2        3.267e+6 
         3033.5        3.328e+6 
         3033.8         3.39e+6 
         3034.1        3.452e+6 
         3034.4        3.511e+6 
         3034.7        3.555e+6 
           3035         3.57e+6 
         3035.3        3.539e+6 
         3035.6        3.453e+6 
         3035.9        3.307e+6 
         3036.2        3.111e+6 
         3036.5        2.886e+6 
         3036.8        2.661e+6 
         3037.1        2.471e+6 
         3037.4        2.342e+6 
         3037.7        2.291e+6 
           3038         2.32e+6 
         3038.3        2.416e+6 
         3038.6        2.554e+6 
         3038.9        2.705e+6 
         3039.2        2.842e+6 
         3039.5        2.944e+6 
         3039.8        2.998e+6 
         3040.1        3.002e+6 
         3040.4        2.963e+6 
         3040.7        2.895e+6 
           3041        2.817e+6 
         3041.3        2.746e+6 
         3041.6        2.702e+6 
         3041.9        2.694e+6 
         3042.2        2.727e+6 
         3042.5        2.797e+6 
         3042.8        2.892e+6 
         3043.1        2.994e+6 
         3043.4        3.088e+6 
         3043.7        3.163e+6 
           3044        3.214e+6 
         3044.3        3.242e+6 
         3044.6        3.251e+6 
         3044.9         3.24e+6 
         3045.2        3.208e+6 
         3045.5        3.152e+6 
         3045.8        3.067e+6 
         3046.1        2.953e+6 
         3046.4         2.82e+6 
         3046.7        2.686e+6 
           3047        2.571e+6 
         3047.3        2.502e+6 
         3047.6        2.491e+6 
         3047.9        2.542e+6 
         3048.2        2.644e+6 
         3048.5        2.775e+6 
         3048.8        2.909e+6 
         3049.1        3.025e+6 
         3049.4        3.109e+6 
         3049.7        3.163e+6 
           3050        3.198e+6 
         3050.3        3.232e+6 
         3050.6        3.282e+6 
         3050.9        3.358e+6 
         3051.2        3.454e+6 
         3051.5        3.554e+6 
         3051.8        3.636e+6 
         3052.1        3.677e+6 
         3052.4        3.666e+6 
         3052.7        3.601e+6 
           3053        3.498e+6 
         3053.3        3.378e+6 
         3053.6        3.269e+6 
         3053.9        3.194e+6 
         3054.2        3.166e+6 
         3054.5        3.184e+6 
         3054.8        3.236e+6 
         3055.1        3.296e+6 
         3055.4        3.339e+6 
         3055.7        3.339e+6 
           3056        3.283e+6 
         3056.3        3.168e+6 
         3056.6        3.005e+6 
         3056.9        2.815e+6 
         3057.2        2.623e+6 
         3057.5        2.453e+6 
         3057.8        2.322e+6 
         3058.1         2.24e+6 
         3058.4        2.212e+6 
         3058.7        2.238e+6 
           3059        2.317e+6 
         3059.3        2.446e+6 
         3059.6        2.616e+6 
         3059.9        2.812e+6 
         3060.2        3.014e+6 
         3060.5          3.2e+6 
         3060.8         3.35e+6 
         3061.1        3.452e+6 
         3061.4        3.497e+6 
         3061.7        3.487e+6 
           3062        3.426e+6 
         3062.3        3.322e+6 
         3062.6        3.185e+6 
         3062.9        3.031e+6 
         3063.2        2.874e+6 
         3063.5        2.728e+6 
         3063.8        2.607e+6 
         3064.1        2.516e+6 
         3064.4        2.452e+6 
         3064.7        2.408e+6 
           3065        2.369e+6 
         3065.3        2.323e+6 
         3065.6        2.263e+6 
         3065.9        2.189e+6 
         3066.2        2.108e+6 
         3066.5        2.034e+6 
         3066.8        1.982e+6 
         3067.1        1.964e+6 
         3067.4        1.989e+6 
         3067.7        2.059e+6 
           3068        2.168e+6 
         3068.3        2.303e+6 
         3068.6        2.452e+6 
         3068.9        2.597e+6 
         3069.2        2.725e+6 
         3069.5        2.827e+6 
         3069.8        2.901e+6 
         3070.1         2.95e+6 
         3070.4        2.978e+6 
         3070.7        2.989e+6 
           3071         2.99e+6 
         3071.3        2.985e+6 
         3071.6        2.979e+6 
         3071.9        2.981e+6 
         3072.2        2.996e+6 
         3072.5         3.03e+6 
         3072.8         3.08e+6 
         3073.1        3.135e+6 
         3073.4        3.182e+6 
         3073.7        3.206e+6 
           3074        3.198e+6 
         3074.3        3.155e+6 
         3074.6        3.091e+6 
         3074.9        3.021e+6 
         3075.2        2.969e+6 
         3075.5         2.95e+6 
         3075.8        2.969e+6 
         3076.1        3.018e+6 
         3076.4         3.08e+6 
         3076.7        3.134e+6 
           3077        3.165e+6 
         3077.3        3.167e+6 
         3077.6        3.144e+6 
         3077.9        3.108e+6 
         3078.2        3.075e+6 
         3078.5        3.057e+6 
         3078.8        3.057e+6 
         3079.1        3.071e+6 
         3079.4        3.086e+6 
         3079.7        3.091e+6 
           3080        3.074e+6 
         3080.3        3.032e+6 
         3080.6         2.97e+6 
         3080.9        2.895e+6 
         3081.2         2.82e+6 
         3081.5        2.757e+6 
         3081.8        2.715e+6 
         3082.1        2.702e+6 
         3082.4        2.719e+6 
         3082.7        2.767e+6 
           3083        2.841e+6 
         3083.3         2.94e+6 
         3083.6        3.055e+6 
         3083.9        3.179e+6 
         3084.2        3.298e+6 
         3084.5        3.401e+6 
         3084.8        3.473e+6 
         3085.1        3.502e+6 
         3085.4         3.48e+6 
         3085.7        3.405e+6 
           3086        3.284e+6 
         3086.3         3.13e+6 
         3086.6        2.961e+6 
         3086.9        2.798e+6 
         3087.2        2.661e+6 
         3087.5        2.562e+6 
         3087.8        2.502e+6 
         3088.1        2.475e+6 
         3088.4        2.464e+6 
         3088.7        2.455e+6 
           3089        2.436e+6 
         3089.3        2.403e+6 
         3089.6        2.362e+6 
         3089.9        2.321e+6 
         3090.2        2.291e+6 
         3090.5        2.275e+6 
         3090.8        2.272e+6 
         3091.1        2.278e+6 
         3091.4        2.283e+6 
         3091.7        2.281e+6 
           3092        2.269e+6 
         3092.3         2.25e+6 
         3092.6        2.235e+6 
         3092.9        2.235e+6 
         3093.2        2.261e+6 
         3093.5        2.313e+6 
         3093.8        2.387e+6 
         3094.1        2.469e+6 
         3094.4        2.543e+6 
         3094.7        2.592e+6 
           3095        2.608e+6 
         3095.3        2.586e+6 
         3095.6        2.534e+6 
         3095.9        2.463e+6 
         3096.2        2.391e+6 
         3096.5        2.335e+6 
         3096.8        2.305e+6 
         3097.1        2.302e+6 
         3097.4        2.316e+6 
         3097.7        2.329e+6 
           3098        2.322e+6 
         3098.3        2.279e+6 
         3098.6        2.194e+6 
         3098.9        2.071e+6 
         3099.2        1.925e+6 
         3099.5        1.774e+6 
         3099.8        1.639e+6 
         3100.1        1.536e+6 
         3100.4        1.477e+6 
         3100.7        1.469e+6 
           3101        1.514e+6 
         3101.3         1.61e+6 
         3101.6        1.756e+6 
         3101.9         1.94e+6 
         3102.2        2.151e+6 
         3102.5        2.371e+6 
         3102.8        2.579e+6 
         3103.1        2.757e+6 
         3103.4         2.89e+6 
         3103.7        2.968e+6 
           3104        2.993e+6 
         3104.3        2.972e+6 
         3104.6        2.922e+6 
         3104.9        2.861e+6 
         3105.2        2.809e+6 
         3105.5        2.784e+6 
         3105.8        2.795e+6 
         3106.1        2.846e+6 
         3106.4        2.931e+6 
         3106.7        3.038e+6 
           3107        3.152e+6 
         3107.3        3.261e+6 
         3107.6         3.35e+6 
         3107.9        3.412e+6 
         3108.2        3.442e+6 
         3108.5        3.441e+6 
         3108.8        3.416e+6 
         3109.1        3.375e+6 
         3109.4        3.329e+6 
         3109.7         3.29e+6 
           3110        3.267e+6 
         3110.3        3.265e+6 
         3110.6        3.283e+6 
         3110.9        3.315e+6 
         3111.2        3.355e+6 
         3111.5        3.393e+6 
         3111.8         3.42e+6 
         3112.1        3.428e+6 
         3112.4        3.414e+6 
         3112.7        3.376e+6 
           3113        3.318e+6 
         3113.3         3.25e+6 
         3113.6        3.185e+6 
         3113.9        3.138e+6 
         3114.2        3.123e+6 
         3114.5        3.144e+6 
         3114.8        3.197e+6 
         3115.1        3.268e+6 
         3115.4        3.334e+6 
         3115.7        3.372e+6 
           3116        3.363e+6 
         3116.3          3.3e+6 
         3116.6        3.189e+6 
         3116.9        3.045e+6 
         3117.2        2.889e+6 
         3117.5        2.742e+6 
         3117.8        2.618e+6 
         3118.1        2.526e+6 
         3118.4        2.467e+6 
         3118.7        2.438e+6 
           3119        2.432e+6 
         3119.3        2.443e+6 
         3119.6        2.466e+6 
         3119.9        2.495e+6 
         3120.2        2.523e+6 
         3120.5        2.546e+6 
         3120.8        2.559e+6 
         3121.1        2.559e+6 
         3121.4        2.549e+6 
         3121.7        2.541e+6 
           3122        2.542e+6 
         3122.3        2.561e+6 
         3122.6        2.601e+6 
         3122.9        2.656e+6 
         3123.2        2.715e+6 
         3123.5        2.763e+6 
         3123.8        2.788e+6 
         3124.1        2.786e+6 
         3124.4        2.761e+6 
         3124.7        2.727e+6 
           3125        2.699e+6 
         3125.3        2.693e+6 
         3125.6        2.718e+6 
         3125.9        2.773e+6 
         3126.2        2.849e+6 
         3126.5         2.93e+6 
         3126.8        2.999e+6 
         3127.1        3.043e+6 
         3127.4        3.057e+6 
         3127.7        3.043e+6 
           3128         3.01e+6 
         3128.3        2.971e+6 
         3128.6        2.936e+6 
         3128.9        2.909e+6 
         3129.2         2.89e+6 
         3129.5        2.871e+6 
         3129.8         2.85e+6 
         3130.1        2.826e+6 
         3130.4        2.799e+6 
         3130.7        2.775e+6 
           3131        2.754e+6 
         3131.3         2.74e+6 
         3131.6        2.729e+6 
         3131.9         2.72e+6 
         3132.2        2.707e+6 
         3132.5         2.69e+6 
         3132.8        2.668e+6 
         3133.1        2.643e+6 
         3133.4        2.622e+6 
         3133.7        2.614e+6 
           3134        2.628e+6 
         3134.3        2.668e+6 
         3134.6        2.733e+6 
         3134.9        2.812e+6 
         3135.2        2.892e+6 
         3135.5        2.961e+6 
         3135.8        3.014e+6 
         3136.1        3.048e+6 
         3136.4        3.071e+6 
         3136.7        3.088e+6 
           3137        3.105e+6 
         3137.3        3.121e+6 
         3137.6        3.133e+6 
         3137.9        3.139e+6 
         3138.2        3.137e+6 
         3138.5        3.131e+6 
         3138.8        3.124e+6 
         3139.1        3.123e+6 
         3139.4        3.132e+6 
         3139.7        3.154e+6 
           3140        3.186e+6 
         3140.3        3.224e+6 
         3140.6         3.26e+6 
         3140.9        3.282e+6 
         3141.2        3.278e+6 
         3141.5        3.236e+6 
         3141.8        3.146e+6 
         3142.1        3.004e+6 
         3142.4         2.81e+6 
         3142.7        2.574e+6 
           3143        2.313e+6 
         3143.3        2.051e+6 
         3143.6        1.813e+6 
         3143.9        1.625e+6 
         3144.2        1.505e+6 
         3144.5        1.462e+6 
         3144.8        1.495e+6 
         3145.1        1.592e+6 
         3145.4        1.734e+6 
         3145.7        1.897e+6 
           3146        2.061e+6 
         3146.3        2.209e+6 
         3146.6        2.336e+6 
         3146.9        2.443e+6 
         3147.2        2.535e+6 
         3147.5        2.622e+6 
         3147.8         2.71e+6 
         3148.1        2.797e+6 
         3148.4        2.882e+6 
         3148.7        2.959e+6 
           3149        3.024e+6 
         3149.3        3.077e+6 
         3149.6         3.12e+6 
         3149.9        3.155e+6 
         3150.2        3.184e+6 
         3150.5        3.204e+6 
         3150.8        3.213e+6 
         3151.1        3.211e+6 
         3151.4        3.199e+6 
         3151.7        3.182e+6 
           3152        3.169e+6 
         3152.3        3.163e+6 
         3152.6        3.167e+6 
         3152.9        3.177e+6 
         3153.2        3.185e+6 
         3153.5        3.187e+6 
         3153.8        3.175e+6 
         3154.1         3.15e+6 
         3154.4        3.113e+6 
         3154.7        3.067e+6 
           3155        3.012e+6 
         3155.3        2.946e+6 
         3155.6        2.866e+6 
         3155.9         2.77e+6 
         3156.2        2.655e+6 
         3156.5        2.526e+6 
         3156.8         2.39e+6 
         3157.1        2.257e+6 
         3157.4         2.14e+6 
         3157.7        2.048e+6 
           3158        1.988e+6 
         3158.3        1.962e+6 
         3158.6        1.966e+6 
         3158.9         1.99e+6 
         3159.2        2.025e+6 
         3159.5        2.059e+6 
         3159.8        2.081e+6 
         3160.1        2.086e+6 
         3160.4        2.074e+6 
         3160.7        2.052e+6 
           3161        2.033e+6 
         3161.3        2.028e+6 
         3161.6        2.049e+6 
         3161.9        2.099e+6 
         3162.2        2.176e+6 
         3162.5        2.273e+6 
         3162.8        2.375e+6 
         3163.1        2.471e+6 
         3163.4        2.546e+6 
         3163.7        2.596e+6 
           3164        2.621e+6 
         3164.3        2.629e+6 
         3164.6         2.63e+6 
         3164.9        2.638e+6 
         3165.2        2.658e+6 
         3165.5        2.695e+6 
         3165.8        2.746e+6 
         3166.1        2.805e+6 
         3166.4        2.862e+6 
         3166.7        2.906e+6 
           3167        2.927e+6 
         3167.3         2.92e+6 
         3167.6        2.885e+6 
         3167.9        2.829e+6 
         3168.2        2.766e+6 
         3168.5        2.713e+6 
         3168.8        2.688e+6 
         3169.1        2.701e+6 
         3169.4        2.757e+6 
         3169.7        2.849e+6 
           3170        2.967e+6 
         3170.3        3.095e+6 
         3170.6        3.217e+6 
         3170.9        3.323e+6 
         3171.2        3.406e+6 
         3171.5        3.462e+6 
         3171.8        3.492e+6 
         3172.1        3.496e+6 
         3172.4        3.475e+6 
         3172.7        3.434e+6 
           3173        3.376e+6 
         3173.3        3.309e+6 
         3173.6        3.242e+6 
         3173.9        3.184e+6 
         3174.2        3.142e+6 
         3174.5        3.125e+6 
         3174.8        3.136e+6 
         3175.1        3.177e+6 
         3175.4        3.243e+6 
         3175.7        3.323e+6 
           3176        3.403e+6 
         3176.3        3.466e+6 
         3176.6        3.497e+6 
         3176.9         3.49e+6 
         3177.2        3.445e+6 
         3177.5        3.367e+6 
         3177.8        3.264e+6 
         3178.1        3.147e+6 
