# Granada HRES Library
# atmosphere = Spectrum  (atmosphere model used)
# feh = 0  (value for [Fe/H] for the model.)
# logg = 0.5 log(cm/s2) (value for Log(G) for the model.)
# teff = 5750 K (value for the effective temperature for the model. Temperatures are given in K)
#
# column 1: WAVELENGTH (ANGSTROM), Wavelength in Angstrom
# column 2: FLUX (ERG/CM2/S/A), Flux in erg/cm2/s/A
         3000.2          943000 
         3000.5          919700 
         3000.8          897100 
         3001.1          873500 
         3001.4          847800 
         3001.7          819900 
           3002          793600 
         3002.3          775000 
         3002.6          772800 
         3002.9          794700 
         3003.2          846500 
         3003.5          928800 
         3003.8        1.038e+6 
         3004.1        1.166e+6 
         3004.4        1.302e+6 
         3004.7        1.433e+6 
           3005        1.547e+6 
         3005.3        1.631e+6 
         3005.6         1.68e+6 
         3005.9        1.691e+6 
         3006.2        1.666e+6 
         3006.5        1.611e+6 
         3006.8        1.537e+6 
         3007.1        1.453e+6 
         3007.4        1.371e+6 
         3007.7        1.301e+6 
           3008         1.25e+6 
         3008.3        1.227e+6 
         3008.6        1.235e+6 
         3008.9        1.274e+6 
         3009.2        1.339e+6 
         3009.5        1.419e+6 
         3009.8        1.504e+6 
         3010.1         1.58e+6 
         3010.4        1.636e+6 
         3010.7        1.667e+6 
           3011        1.673e+6 
         3011.3        1.656e+6 
         3011.6        1.627e+6 
         3011.9        1.595e+6 
         3012.2        1.565e+6 
         3012.5        1.543e+6 
         3012.8        1.528e+6 
         3013.1        1.521e+6 
         3013.4        1.518e+6 
         3013.7        1.517e+6 
           3014        1.516e+6 
         3014.3        1.511e+6 
         3014.6        1.502e+6 
         3014.9         1.49e+6 
         3015.2        1.476e+6 
         3015.5        1.464e+6 
         3015.8        1.456e+6 
         3016.1        1.452e+6 
         3016.4        1.449e+6 
         3016.7        1.444e+6 
           3017        1.431e+6 
         3017.3        1.408e+6 
         3017.6        1.376e+6 
         3017.9        1.334e+6 
         3018.2        1.282e+6 
         3018.5        1.219e+6 
         3018.8        1.145e+6 
         3019.1         1.06e+6 
         3019.4          968600 
         3019.7          878500 
           3020          801200 
         3020.3          750700 
         3020.6          741100 
         3020.9          781400 
         3021.2          872400 
         3021.5        1.005e+6 
         3021.8         1.16e+6 
         3022.1        1.316e+6 
         3022.4        1.452e+6 
         3022.7        1.552e+6 
           3023         1.61e+6 
         3023.3        1.628e+6 
         3023.6        1.616e+6 
         3023.9        1.582e+6 
         3024.2        1.534e+6 
         3024.5        1.477e+6 
         3024.8        1.416e+6 
         3025.1        1.357e+6 
         3025.4         1.31e+6 
         3025.7        1.287e+6 
           3026        1.297e+6 
         3026.3        1.343e+6 
         3026.6        1.421e+6 
         3026.9        1.517e+6 
         3027.2        1.619e+6 
         3027.5        1.709e+6 
         3027.8        1.775e+6 
         3028.1         1.81e+6 
         3028.4         1.81e+6 
         3028.7        1.779e+6 
           3029        1.721e+6 
         3029.3        1.648e+6 
         3029.6        1.569e+6 
         3029.9        1.493e+6 
         3030.2        1.428e+6 
         3030.5        1.378e+6 
         3030.8        1.347e+6 
         3031.1        1.337e+6 
         3031.4        1.351e+6 
         3031.7        1.383e+6 
           3032        1.429e+6 
         3032.3        1.478e+6 
         3032.6        1.521e+6 
         3032.9        1.554e+6 
         3033.2        1.575e+6 
         3033.5         1.59e+6 
         3033.8        1.605e+6 
         3034.1        1.626e+6 
         3034.4        1.653e+6 
         3034.7        1.683e+6 
           3035        1.707e+6 
         3035.3        1.713e+6 
         3035.6         1.69e+6 
         3035.9        1.633e+6 
         3036.2        1.543e+6 
         3036.5         1.43e+6 
         3036.8        1.312e+6 
         3037.1        1.206e+6 
         3037.4        1.127e+6 
         3037.7        1.087e+6 
           3038        1.087e+6 
         3038.3        1.122e+6 
         3038.6        1.183e+6 
         3038.9        1.259e+6 
         3039.2        1.337e+6 
         3039.5        1.408e+6 
         3039.8        1.462e+6 
         3040.1        1.494e+6 
         3040.4        1.503e+6 
         3040.7        1.489e+6 
           3041        1.458e+6 
         3041.3        1.417e+6 
         3041.6        1.374e+6 
         3041.9        1.339e+6 
         3042.2        1.317e+6 
         3042.5         1.31e+6 
         3042.8        1.316e+6 
         3043.1        1.327e+6 
         3043.4        1.337e+6 
         3043.7        1.343e+6 
           3044        1.344e+6 
         3044.3        1.344e+6 
         3044.6        1.347e+6 
         3044.9        1.358e+6 
         3045.2        1.375e+6 
         3045.5        1.392e+6 
         3045.8        1.402e+6 
         3046.1        1.397e+6 
         3046.4        1.373e+6 
         3046.7        1.334e+6 
           3047        1.289e+6 
         3047.3        1.249e+6 
         3047.6        1.227e+6 
         3047.9         1.23e+6 
         3048.2        1.256e+6 
         3048.5        1.303e+6 
         3048.8        1.361e+6 
         3049.1        1.423e+6 
         3049.4        1.481e+6 
         3049.7        1.534e+6 
           3050        1.585e+6 
         3050.3        1.639e+6 
         3050.6        1.702e+6 
         3050.9        1.776e+6 
         3051.2        1.857e+6 
         3051.5        1.933e+6 
         3051.8        1.989e+6 
         3052.1        2.013e+6 
         3052.4        1.998e+6 
         3052.7        1.944e+6 
           3053        1.861e+6 
         3053.3        1.764e+6 
         3053.6        1.669e+6 
         3053.9        1.591e+6 
         3054.2        1.538e+6 
         3054.5        1.514e+6 
         3054.8        1.514e+6 
         3055.1        1.528e+6 
         3055.4        1.541e+6 
         3055.7         1.54e+6 
           3056        1.513e+6 
         3056.3        1.458e+6 
         3056.6        1.381e+6 
         3056.9        1.296e+6 
         3057.2        1.218e+6 
         3057.5        1.157e+6 
         3057.8         1.12e+6 
         3058.1        1.106e+6 
         3058.4        1.111e+6 
         3058.7        1.131e+6 
           3059        1.166e+6 
         3059.3        1.218e+6 
         3059.6        1.291e+6 
         3059.9        1.381e+6 
         3060.2        1.479e+6 
         3060.5        1.575e+6 
         3060.8        1.653e+6 
         3061.1        1.703e+6 
         3061.4        1.723e+6 
         3061.7        1.711e+6 
           3062        1.673e+6 
         3062.3        1.617e+6 
         3062.6        1.553e+6 
         3062.9        1.488e+6 
         3063.2        1.433e+6 
         3063.5        1.394e+6 
         3063.8        1.371e+6 
         3064.1        1.362e+6 
         3064.4        1.356e+6 
         3064.7        1.344e+6 
           3065        1.317e+6 
         3065.3        1.274e+6 
         3065.6         1.22e+6 
         3065.9        1.167e+6 
         3066.2        1.128e+6 
         3066.5        1.115e+6 
         3066.8        1.137e+6 
         3067.1        1.194e+6 
         3067.4        1.282e+6 
         3067.7         1.39e+6 
           3068         1.51e+6 
         3068.3         1.63e+6 
         3068.6        1.736e+6 
         3068.9        1.818e+6 
         3069.2        1.867e+6 
         3069.5        1.877e+6 
         3069.8        1.849e+6 
         3070.1        1.787e+6 
         3070.4        1.701e+6 
         3070.7          1.6e+6 
           3071        1.495e+6 
         3071.3        1.394e+6 
         3071.6        1.304e+6 
         3071.9        1.235e+6 
         3072.2        1.194e+6 
         3072.5        1.189e+6 
         3072.8        1.218e+6 
         3073.1        1.272e+6 
         3073.4        1.335e+6 
         3073.7        1.387e+6 
           3074        1.412e+6 
         3074.3        1.406e+6 
         3074.6        1.376e+6 
         3074.9         1.34e+6 
         3075.2         1.32e+6 
         3075.5         1.33e+6 
         3075.8        1.374e+6 
         3076.1         1.44e+6 
         3076.4        1.508e+6 
         3076.7        1.556e+6 
           3077        1.569e+6 
         3077.3        1.542e+6 
         3077.6        1.485e+6 
         3077.9        1.416e+6 
         3078.2        1.356e+6 
         3078.5        1.326e+6 
         3078.8        1.336e+6 
         3079.1        1.384e+6 
         3079.4        1.458e+6 
         3079.7        1.541e+6 
           3080        1.612e+6 
         3080.3        1.659e+6 
         3080.6        1.675e+6 
         3080.9        1.663e+6 
         3081.2        1.628e+6 
         3081.5        1.584e+6 
         3081.8         1.54e+6 
         3082.1        1.509e+6 
         3082.4          1.5e+6 
         3082.7        1.516e+6 
           3083        1.561e+6 
         3083.3        1.633e+6 
         3083.6        1.726e+6 
         3083.9        1.831e+6 
         3084.2        1.937e+6 
         3084.5        2.032e+6 
         3084.8        2.104e+6 
         3085.1        2.144e+6 
         3085.4        2.144e+6 
         3085.7        2.102e+6 
           3086        2.017e+6 
         3086.3        1.896e+6 
         3086.6         1.75e+6 
         3086.9        1.594e+6 
         3087.2        1.446e+6 
         3087.5        1.323e+6 
         3087.8        1.238e+6 
         3088.1        1.197e+6 
         3088.4        1.198e+6 
         3088.7        1.231e+6 
           3089        1.284e+6 
         3089.3        1.347e+6 
         3089.6        1.411e+6 
         3089.9        1.472e+6 
         3090.2        1.527e+6 
         3090.5        1.574e+6 
         3090.8        1.611e+6 
         3091.1        1.632e+6 
         3091.4        1.634e+6 
         3091.7        1.613e+6 
           3092        1.569e+6 
         3092.3        1.511e+6 
         3092.6        1.451e+6 
         3092.9        1.405e+6 
         3093.2        1.387e+6 
         3093.5          1.4e+6 
         3093.8         1.44e+6 
         3094.1        1.494e+6 
         3094.4        1.545e+6 
         3094.7         1.58e+6 
           3095        1.588e+6 
         3095.3        1.568e+6 
         3095.6        1.526e+6 
         3095.9         1.47e+6 
         3096.2        1.415e+6 
         3096.5        1.374e+6 
         3096.8        1.354e+6 
         3097.1        1.358e+6 
         3097.4         1.38e+6 
         3097.7        1.407e+6 
           3098        1.423e+6 
         3098.3        1.417e+6 
         3098.6        1.383e+6 
         3098.9        1.324e+6 
         3099.2        1.249e+6 
         3099.5         1.17e+6 
         3099.8        1.098e+6 
         3100.1        1.042e+6 
         3100.4        1.007e+6 
         3100.7          998300 
           3101        1.015e+6 
         3101.3        1.057e+6 
         3101.6        1.122e+6 
         3101.9        1.205e+6 
         3102.2        1.299e+6 
         3102.5        1.393e+6 
         3102.8        1.475e+6 
         3103.1        1.534e+6 
         3103.4        1.562e+6 
         3103.7        1.559e+6 
           3104        1.529e+6 
         3104.3        1.482e+6 
         3104.6        1.431e+6 
         3104.9         1.39e+6 
         3105.2        1.369e+6 
         3105.5        1.376e+6 
         3105.8        1.411e+6 
         3106.1         1.47e+6 
         3106.4        1.546e+6 
         3106.7        1.627e+6 
           3107        1.705e+6 
         3107.3        1.771e+6 
         3107.6        1.821e+6 
         3107.9        1.852e+6 
         3108.2        1.862e+6 
         3108.5         1.85e+6 
         3108.8        1.819e+6 
         3109.1        1.772e+6 
         3109.4        1.715e+6 
         3109.7         1.66e+6 
           3110        1.618e+6 
         3110.3          1.6e+6 
         3110.6        1.613e+6 
         3110.9        1.654e+6 
         3111.2        1.717e+6 
         3111.5        1.792e+6 
         3111.8        1.864e+6 
         3112.1        1.925e+6 
         3112.4        1.966e+6 
         3112.7        1.984e+6 
           3113        1.979e+6 
         3113.3        1.953e+6 
         3113.6        1.914e+6 
         3113.9        1.869e+6 
         3114.2        1.826e+6 
         3114.5        1.792e+6 
         3114.8        1.773e+6 
         3115.1        1.766e+6 
         3115.4        1.768e+6 
         3115.7         1.77e+6 
           3116        1.764e+6 
         3116.3         1.74e+6 
         3116.6        1.697e+6 
         3116.9        1.635e+6 
         3117.2        1.558e+6 
         3117.5        1.475e+6 
         3117.8        1.394e+6 
         3118.1        1.322e+6 
         3118.4        1.265e+6 
         3118.7        1.223e+6 
           3119        1.196e+6 
         3119.3        1.182e+6 
         3119.6        1.179e+6 
         3119.9        1.188e+6 
         3120.2        1.211e+6 
         3120.5        1.246e+6 
         3120.8         1.29e+6 
         3121.1        1.342e+6 
         3121.4        1.397e+6 
         3121.7        1.454e+6 
           3122        1.513e+6 
         3122.3        1.574e+6 
         3122.6        1.634e+6 
         3122.9        1.687e+6 
         3123.2        1.726e+6 
         3123.5         1.74e+6 
         3123.8        1.723e+6 
         3124.1        1.674e+6 
         3124.4        1.603e+6 
         3124.7        1.526e+6 
           3125        1.466e+6 
         3125.3        1.444e+6 
         3125.6        1.472e+6 
         3125.9         1.55e+6 
         3126.2        1.663e+6 
         3126.5        1.788e+6 
         3126.8        1.898e+6 
         3127.1        1.971e+6 
         3127.4        1.995e+6 
         3127.7        1.971e+6 
           3128        1.909e+6 
         3128.3        1.824e+6 
         3128.6        1.733e+6 
         3128.9        1.647e+6 
         3129.2        1.568e+6 
         3129.5        1.495e+6 
         3129.8        1.426e+6 
         3130.1        1.359e+6 
         3130.4        1.297e+6 
         3130.7        1.243e+6 
           3131        1.201e+6 
         3131.3        1.174e+6 
         3131.6         1.16e+6 
         3131.9        1.157e+6 
         3132.2        1.164e+6 
         3132.5        1.179e+6 
         3132.8        1.201e+6 
         3133.1         1.23e+6 
         3133.4        1.266e+6 
         3133.7        1.312e+6 
           3134        1.367e+6 
         3134.3         1.43e+6 
         3134.6        1.499e+6 
         3134.9        1.568e+6 
         3135.2        1.633e+6 
         3135.5        1.688e+6 
         3135.8        1.732e+6 
         3136.1        1.768e+6 
         3136.4        1.802e+6 
         3136.7        1.839e+6 
           3137        1.882e+6 
         3137.3        1.928e+6 
         3137.6        1.972e+6 
         3137.9        2.007e+6 
         3138.2        2.024e+6 
         3138.5        2.024e+6 
         3138.8        2.008e+6 
         3139.1        1.985e+6 
         3139.4        1.963e+6 
         3139.7        1.951e+6 
           3140        1.953e+6 
         3140.3        1.969e+6 
         3140.6         1.99e+6 
         3140.9        2.003e+6 
         3141.2        1.997e+6 
         3141.5        1.962e+6 
         3141.8        1.897e+6 
         3142.1        1.806e+6 
         3142.4        1.697e+6 
         3142.7         1.58e+6 
           3143        1.462e+6 
         3143.3        1.349e+6 
         3143.6        1.248e+6 
         3143.9        1.164e+6 
         3144.2        1.103e+6 
         3144.5        1.071e+6 
         3144.8        1.072e+6 
         3145.1        1.107e+6 
         3145.4         1.17e+6 
         3145.7        1.253e+6 
           3146        1.344e+6 
         3146.3        1.432e+6 
         3146.6         1.51e+6 
         3146.9        1.576e+6 
         3147.2        1.632e+6 
         3147.5        1.684e+6 
         3147.8        1.735e+6 
         3148.1        1.788e+6 
         3148.4        1.841e+6 
         3148.7        1.892e+6 
           3149         1.94e+6 
         3149.3        1.985e+6 
         3149.6        2.026e+6 
         3149.9        2.065e+6 
         3150.2        2.098e+6 
         3150.5        2.121e+6 
         3150.8        2.131e+6 
         3151.1        2.128e+6 
         3151.4        2.114e+6 
         3151.7        2.096e+6 
           3152        2.078e+6 
         3152.3        2.063e+6 
         3152.6        2.048e+6 
         3152.9        2.028e+6 
         3153.2        1.997e+6 
         3153.5        1.951e+6 
         3153.8        1.892e+6 
         3154.1        1.824e+6 
         3154.4        1.757e+6 
         3154.7        1.701e+6 
           3155        1.662e+6 
         3155.3        1.645e+6 
         3155.6        1.648e+6 
         3155.9        1.666e+6 
         3156.2        1.689e+6 
         3156.5        1.703e+6 
         3156.8        1.698e+6 
         3157.1        1.665e+6 
         3157.4        1.605e+6 
         3157.7        1.525e+6 
           3158        1.437e+6 
         3158.3        1.356e+6 
         3158.6        1.293e+6 
         3158.9        1.257e+6 
         3159.2        1.244e+6 
         3159.5        1.246e+6 
         3159.8        1.245e+6 
         3160.1         1.23e+6 
         3160.4        1.194e+6 
         3160.7         1.14e+6 
           3161         1.08e+6 
         3161.3        1.032e+6 
         3161.6        1.013e+6 
         3161.9        1.033e+6 
         3162.2        1.098e+6 
         3162.5        1.202e+6 
         3162.8        1.332e+6 
         3163.1        1.469e+6 
         3163.4        1.592e+6 
         3163.7        1.682e+6 
           3164        1.732e+6 
         3164.3        1.744e+6 
         3164.6        1.728e+6 
         3164.9        1.699e+6 
         3165.2        1.672e+6 
         3165.5        1.655e+6 
         3165.8        1.651e+6 
         3166.1        1.655e+6 
         3166.4         1.66e+6 
         3166.7        1.657e+6 
           3167        1.637e+6 
         3167.3          1.6e+6 
         3167.6        1.551e+6 
         3167.9        1.504e+6 
         3168.2        1.473e+6 
         3168.5        1.471e+6 
         3168.8        1.505e+6 
         3169.1        1.572e+6 
         3169.4        1.661e+6 
         3169.7         1.76e+6 
           3170        1.856e+6 
         3170.3        1.941e+6 
         3170.6        2.011e+6 
         3170.9        2.069e+6 
         3171.2        2.118e+6 
         3171.5         2.16e+6 
         3171.8        2.196e+6 
         3172.1        2.224e+6 
         3172.4        2.241e+6 
         3172.7        2.242e+6 
           3173        2.227e+6 
         3173.3        2.197e+6 
         3173.6        2.158e+6 
         3173.9        2.116e+6 
         3174.2         2.08e+6 
         3174.5        2.054e+6 
         3174.8        2.046e+6 
         3175.1        2.055e+6 
         3175.4         2.08e+6 
         3175.7        2.111e+6 
           3176        2.138e+6 
         3176.3        2.146e+6 
         3176.6        2.124e+6 
         3176.9        2.069e+6 
         3177.2        1.979e+6 
         3177.5        1.864e+6 
         3177.8        1.732e+6 
         3178.1        1.593e+6 
