# Granada HRES Library
# atmosphere = Phoenix  (atmosphere model used)
# feh = 0  (value for [Fe/H] for the model.)
# logg = 0.5 log(cm/s2) (value for Log(G) for the model.)
# teff = 4000 K (value for the effective temperature for the model. Temperatures are given in K)
#
# column 1: WAVELENGTH (ANGSTROM), Wavelength in Angstrom
# column 2: FLUX (ERG/CM2/S/A), Flux in erg/cm2/s/A
         3000.2           175.5 
         3000.5           154.8 
         3000.8           141.6 
         3001.1           135.1 
         3001.4           132.5 
         3001.7           131.2 
           3002           129.4 
         3002.3           128.4 
         3002.6           131.8 
         3002.9           144.3 
         3003.2           169.8 
         3003.5             210 
         3003.8           263.4 
         3004.1           325.5 
         3004.4           390.1 
         3004.7           450.2 
           3005           499.2 
         3005.3           531.4 
         3005.6           542.6 
         3005.9           530.8 
         3006.2           497.6 
         3006.5           448.3 
         3006.8           391.1 
         3007.1           335.9 
         3007.4           291.4 
         3007.7           264.5 
           3008           258.2 
         3008.3           272.7 
         3008.6           305.5 
         3008.9             353 
         3009.2           411.6 
         3009.5           475.9 
         3009.8           537.5 
         3010.1             585 
         3010.4           607.4 
         3010.7             600 
           3011           568.2 
         3011.3           526.7 
         3011.6           492.5 
         3011.9             478 
         3012.2           484.9 
         3012.5           505.3 
         3012.8           526.2 
         3013.1           537.1 
         3013.4           533.3 
         3013.7           517.1 
           3014           495.6 
         3014.3           477.3 
         3014.6           468.2 
         3014.9           469.9 
         3015.2           479.7 
         3015.5             492 
         3015.8           501.6 
         3016.1             505 
         3016.4           500.3 
         3016.7           486.4 
           3017           463.4 
         3017.3           433.1 
         3017.6           399.1 
         3017.9           364.2 
         3018.2           330.2 
         3018.5           296.1 
         3018.8             261 
         3019.1             225 
         3019.4           189.1 
         3019.7             156 
           3020           128.3 
         3020.3           108.7 
         3020.6           99.74 
         3020.9           103.2 
         3021.2           119.6 
         3021.5           147.3 
         3021.8           183.2 
         3022.1           221.8 
         3022.4           257.1 
         3022.7             283 
           3023           295.6 
         3023.3           294.1 
         3023.6           281.2 
         3023.9           262.6 
         3024.2             244 
         3024.5           228.7 
         3024.8           217.4 
         3025.1           209.6 
         3025.4           205.8 
         3025.7           208.1 
           3026           219.3 
         3026.3           240.7 
         3026.6           270.5 
         3026.9           304.4 
         3027.2             338 
         3027.5           368.8 
         3027.8           397.1 
         3028.1           426.3 
         3028.4           459.8 
         3028.7             499 
           3029           540.2 
         3029.3           575.6 
         3029.6           596.8 
         3029.9           599.2 
         3030.2           586.1 
         3030.5           569.6 
         3030.8           567.2 
         3031.1           594.7 
         3031.4           658.7 
         3031.7           750.8 
           3032           848.1 
         3032.3           923.5 
         3032.6           955.7 
         3032.9             939 
         3033.2           883.3 
         3033.5           807.3 
         3033.8             731 
         3034.1           669.5 
         3034.4           629.3 
         3034.7           608.6 
           3035           598.3 
         3035.3           585.9 
         3035.6           561.1 
         3035.9           519.3 
         3036.2             463 
         3036.5           400.2 
         3036.8           342.1 
         3037.1           299.3 
         3037.4             279 
         3037.7           283.5 
           3038           309.5 
         3038.3           350.2 
         3038.6           398.8 
         3038.9           450.3 
         3039.2           502.1 
         3039.5           552.2 
         3039.8           597.1 
         3040.1           632.3 
         3040.4           653.6 
         3040.7             659 
           3041           651.3 
         3041.3           638.1 
         3041.6           630.1 
         3041.9           636.6 
         3042.2           660.3 
         3042.5           694.6 
         3042.8           727.9 
         3043.1           749.4 
         3043.4           755.8 
         3043.7           752.1 
           3044           747.2 
         3044.3           748.5 
         3044.6           758.1 
         3044.9           771.6 
         3045.2           779.7 
         3045.5           771.3 
         3045.8           737.7 
         3046.1             676 
         3046.4             591 
         3046.7           494.6 
           3047             402 
         3047.3             328 
         3047.6           282.7 
         3047.9           270.7 
         3048.2           290.8 
         3048.5           336.6 
         3048.8           397.1 
         3049.1           458.3 
         3049.4           505.3 
         3049.7           527.2 
           3050             522 
         3050.3           497.1 
         3050.6           465.8 
         3050.9           441.5 
         3051.2           432.2 
         3051.5           438.9 
         3051.8           456.5 
         3052.1           476.5 
         3052.4             490 
         3052.7           490.7 
           3053           477.3 
         3053.3           453.8 
         3053.6           427.6 
         3053.9           406.3 
         3054.2           393.9 
         3054.5           390.6 
         3054.8           392.7 
         3055.1           395.2 
         3055.4           393.4 
         3055.7           385.1 
           3056           370.7 
         3056.3           352.4 
         3056.6           333.7 
         3056.9           317.4 
         3057.2           304.7 
         3057.5           295.1 
         3057.8           286.5 
         3058.1           276.7 
         3058.4           266.2 
         3058.7           259.4 
           3059           264.1 
         3059.3           288.6 
         3059.6           337.6 
         3059.9           410.1 
         3060.2           498.1 
         3060.5           589.8 
         3060.8           672.3 
         3061.1           735.7 
         3061.4           775.5 
         3061.7           790.8 
           3062           782.5 
         3062.3           751.2 
         3062.6           698.8 
         3062.9           631.6 
         3063.2             561 
         3063.5             501 
         3063.8             462 
         3064.1           446.7 
         3064.4           449.5 
         3064.7           459.6 
           3065           466.9 
         3065.3           467.3 
         3065.6           463.4 
         3065.9             462 
         3066.2           469.4 
         3066.5           488.4 
         3066.8           518.9 
         3067.1           561.3 
         3067.4             619 
         3067.7           697.5 
           3068           797.7 
         3068.3           910.6 
         3068.6            1015 
         3068.9            1084 
         3069.2            1099 
         3069.5            1057 
         3069.8           975.9 
         3070.1           885.4 
         3070.4           812.9 
         3070.7           776.4 
           3071           781.2 
         3071.3           822.4 
         3071.6           889.9 
         3071.9           971.4 
         3072.2            1054 
         3072.5            1126 
         3072.8            1177 
         3073.1            1202 
         3073.4            1200 
         3073.7            1177 
           3074            1137 
         3074.3            1088 
         3074.6            1038 
         3074.9            1004 
         3075.2            1003 
         3075.5            1052 
         3075.8            1147 
         3076.1            1264 
         3076.4            1365 
         3076.7            1416 
           3077            1399 
         3077.3            1323 
         3077.6            1216 
         3077.9            1106 
         3078.2            1013 
         3078.5             946 
         3078.8             900 
         3079.1           864.4 
         3079.4           828.9 
         3079.7           786.6 
           3080           734.9 
         3080.3           676.2 
         3080.6           616.9 
         3080.9           565.9 
         3081.2           532.8 
         3081.5           524.8 
         3081.8           543.2 
         3082.1           581.4 
         3082.4           625.9 
         3082.7           661.3 
           3083           678.7 
         3083.3           681.3 
         3083.6             685 
         3083.9           711.5 
         3084.2           778.7 
         3084.5           892.2 
         3084.8            1042 
         3085.1            1204 
         3085.4            1352 
         3085.7            1468 
           3086            1552 
         3086.3            1615 
         3086.6            1669 
         3086.9            1719 
         3087.2            1761 
         3087.5            1790 
         3087.8            1796 
         3088.1            1768 
         3088.4            1696 
         3088.7            1576 
           3089            1423 
         3089.3            1269 
         3089.6            1147 
         3089.9            1074 
         3090.2            1039 
         3090.5            1011 
         3090.8           958.2 
         3091.1           868.9 
         3091.4           752.3 
         3091.7           632.1 
           3092             535 
         3092.3           480.5 
         3092.6             477 
         3092.9           521.2 
         3093.2           599.2 
         3093.5             690 
         3093.8           772.4 
         3094.1           831.5 
         3094.4           862.8 
         3094.7           871.4 
           3095           867.3 
         3095.3           860.3 
         3095.6           859.5 
         3095.9             875 
         3096.2           922.6 
         3096.5            1021 
         3096.8            1184 
         3097.1            1405 
         3097.4            1644 
         3097.7            1840 
           3098            1926 
         3098.3            1862 
         3098.6            1660 
         3098.9            1369 
         3099.2            1062 
         3099.5             798 
         3099.8           610.1 
         3100.1           499.2 
         3100.4           447.5 
         3100.7           434.3 
           3101           449.3 
         3101.3           599.4 
         3101.6           774.2 
         3101.9            1027 
         3102.2            1336 
         3102.5            1654 
         3102.8            1926 
         3103.1            2118 
         3103.4            2225 
         3103.7            2269 
           3104            2271 
         3104.3            2232 
         3104.6            2134 
         3104.9            1957 
         3105.2            1707 
         3105.5            1417 
         3105.8            1139 
         3106.1           918.7 
         3106.4           781.1 
         3106.7           732.6 
           3107           767.2 
         3107.3           872.9 
         3107.6            1034 
         3107.9            1225 
         3108.2            1417 
         3108.5            1568 
         3108.8            1649 
         3109.1            1649 
         3109.4            1588 
         3109.7            1512 
           3110            1470 
         3110.3            1489 
         3110.6            1561 
         3110.9            1644 
         3111.2            1682 
         3111.5            1638 
         3111.8            1509 
         3112.1            1325 
         3112.4            1137 
         3112.7           988.3 
           3113           911.6 
         3113.3           920.7 
         3113.6            1020 
         3113.9            1208 
         3114.2            1486 
         3114.5            1842 
         3114.8            2245 
         3115.1            2637 
         3115.4            2936 
         3115.7            3066 
           3116            2983 
         3116.3            2712 
         3116.6            2333 
         3116.9            1950 
         3117.2            1651 
         3117.5            1478 
         3117.8            1426 
         3118.1            1454 
         3118.4            1512 
         3118.7            1560 
           3119            1575 
         3119.3            1560 
         3119.6            1532 
         3119.9            1512 
         3120.2            1509 
         3120.5            1515 
         3120.8            1517 
         3121.1            1509 
         3121.4            1512 
         3121.7            1571 
           3122            1733 
         3122.3            2025 
         3122.6            2422 
         3122.9            2852 
         3123.2            3216 
         3123.5            3430 
         3123.8            3468 
         3124.1            3367 
         3124.4            3212 
         3124.7            3078 
           3125            3003 
         3125.3            2973 
         3125.6            2942 
         3125.9            2875 
         3126.2            2767 
         3126.5            2639 
         3126.8            2516 
         3127.1            2404 
         3127.4            2290 
         3127.7            2154 
           3128            1981 
         3128.3            1776 
         3128.6            1565 
         3128.9            1376 
         3129.2            1234 
         3129.5            1143 
         3129.8            1104 
         3130.1            1116 
         3130.4            1187 
         3130.7            1324 
           3131            1522 
         3131.3            1747 
         3131.6            1943 
         3131.9            2057 
         3132.2            2054 
         3132.5            1938 
         3132.8            1750 
         3133.1            1554 
         3133.4            1417 
         3133.7            1384 
           3134            1465 
         3134.3            1623 
         3134.6            1793 
         3134.9            1902 
         3135.2            1912 
         3135.5            1832 
         3135.8            1715 
         3136.1            1623 
         3136.4            1610 
         3136.7            1702 
           3137            1894 
         3137.3            2166 
         3137.6            2478 
         3137.9            2787 
         3138.2            3043 
         3138.5            3211 
         3138.8            3273 
         3139.1            3241 
         3139.4            3158 
         3139.7            3086 
           3140            3081 
         3140.3            3157 
         3140.6            3283 
         3140.9            3397 
         3141.2            3453 
         3141.5            3440 
         3141.8            3375 
         3142.1            3269 
         3142.4            3117 
         3142.7            2903 
           3143            2631 
         3143.3            2337 
         3143.6            2067 
         3143.9            1855 
         3144.2            1703 
         3144.5            1593 
         3144.8            1511 
         3145.1            1454 
         3145.4            1433 
         3145.7            1463 
           3146            1551 
         3146.3            1691 
         3146.6            1866 
         3146.9            2049 
         3147.2            2230 
         3147.5            2420 
         3147.8            2664 
         3148.1            3019 
         3148.4            3518 
         3148.7            4150 
           3149            4856 
         3149.3            5543 
         3149.6            6106 
         3149.9            6437 
         3150.2            6446 
         3150.5            6095 
         3150.8            5432 
         3151.1            4588 
         3151.4            3718 
         3151.7            2953 
           3152            2350 
         3152.3            1907 
         3152.6            1590 
         3152.9            1370 
         3153.2            1230 
         3153.5            1175 
         3153.8            1213 
         3154.1            1342 
         3154.4            1539 
         3154.7            1764 
           3155            1974 
         3155.3            2137 
         3155.6            2245 
         3155.9            2300 
         3156.2            2307 
         3156.5            2266 
         3156.8            2186 
         3157.1            2089 
         3157.4            2008 
         3157.7            1980 
           3158            2034 
         3158.3            2179 
         3158.6            2396 
         3158.9            2630 
         3159.2            2802 
         3159.5            2845 
         3159.8            2731 
         3160.1            2492 
         3160.4            2201 
         3160.7            1944 
           3161            1786 
         3161.3            1766 
         3161.6            1903 
         3161.9            2202 
         3162.2            2643 
         3162.5            3168 
         3162.8            3678 
         3163.1            4066 
         3163.4            4259 
         3163.7            4247 
           3164            4069 
         3164.3            3791 
         3164.6            3465 
         3164.9            3143 
         3165.2            2866 
         3165.5            2684 
         3165.8            2634 
         3166.1            2737 
         3166.4            2984 
         3166.7            3333 
           3167            3708 
         3167.3            4019 
         3167.6            4183 
         3167.9            4169 
         3168.2            4009 
         3168.5            3791 
         3168.8            3612 
         3169.1            3530 
         3169.4            3547 
         3169.7            3625 
           3170            3725 
         3170.3            3841 
         3170.6            4005 
         3170.9            4267 
         3171.2            4652 
         3171.5            5124 
         3171.8            5585 
         3172.1            5931 
         3172.4            6124 
         3172.7            6246 
           3173            6460 
         3173.3            6910 
         3173.6            7610 
         3173.9            8416 
         3174.2            9120 
         3174.5            9572 
         3174.8            9769 
         3175.1            9798 
         3175.4            9736 
         3175.7            9577 
           3176            9261 
         3176.3            8744 
         3176.6            8061 
         3176.9            7313 
         3177.2            6623 
         3177.5            6077 
         3177.8            5685 
         3178.1            5390 
