# Granada HRES Library
# atmosphere = Phoenix  (atmosphere model used)
# feh = 0  (value for [Fe/H] for the model.)
# logg = 4 log(cm/s2) (value for Log(G) for the model.)
# teff = 4500 K (value for the effective temperature for the model. Temperatures are given in K)
#
# column 1: WAVELENGTH (ANGSTROM), Wavelength in Angstrom
# column 2: FLUX (ERG/CM2/S/A), Flux in erg/cm2/s/A
         3000.2           13020 
         3000.5           12300 
         3000.8           11770 
         3001.1           11420 
         3001.4           11150 
         3001.7           10840 
           3002           10430 
         3002.3           10040 
         3002.6            9942 
         3002.9           10450 
         3003.2           11770 
         3003.5           13880 
         3003.8           16610 
         3004.1           19630 
         3004.4           22560 
         3004.7           25090 
           3005           27000 
         3005.3           28110 
         3005.6           28290 
         3005.9           27530 
         3006.2           25900 
         3006.5           23640 
         3006.8           21110 
         3007.1           18730 
         3007.4           16860 
         3007.7           15750 
           3008           15480 
         3008.3           15970 
         3008.6           17090 
         3008.9           18670 
         3009.2           20560 
         3009.5           22650 
         3009.8           24710 
         3010.1           26400 
         3010.4           27360 
         3010.7           27400 
           3011           26650 
         3011.3           25590 
         3011.6           24760 
         3011.9           24600 
         3012.2           25170 
         3012.5           26160 
         3012.8           27100 
         3013.1           27610 
         3013.4           27490 
         3013.7           26830 
           3014           25830 
         3014.3           24750 
         3014.6           23800 
         3014.9           23080 
         3015.2           22660 
         3015.5           22520 
         3015.8           22600 
         3016.1           22850 
         3016.4           23110 
         3016.7           23220 
           3017           23020 
         3017.3           22480 
         3017.6           21680 
         3017.9           20700 
         3018.2           19600 
         3018.5           18380 
         3018.8           17000 
         3019.1           15420 
         3019.4           13690 
         3019.7           11880 
           3020           10190 
         3020.3            8861 
         3020.6            8165 
         3020.9            8312 
         3021.2            9368 
         3021.5           11200 
         3021.8           13500 
         3022.1           15880 
         3022.4           17900 
         3022.7           19220 
           3023           19680 
         3023.3           19320 
         3023.6           18430 
         3023.9           17380 
         3024.2           16500 
         3024.5           15890 
         3024.8           15480 
         3025.1           15150 
         3025.4           14900 
         3025.7           14920 
           3026           15480 
         3026.3           16740 
         3026.6           18650 
         3026.9           20940 
         3027.2           23260 
         3027.5           25340 
         3027.8           27040 
         3028.1           28360 
         3028.4           29320 
         3028.7           29930 
           3029           30160 
         3029.3           29940 
         3029.6           29240 
         3029.9           28150 
         3030.2           26860 
         3030.5           25750 
         3030.8           25310 
         3031.1           26020 
         3031.4           28140 
         3031.7           31470 
           3032           35320 
         3032.3           38650 
         3032.6           40510 
         3032.9           40400 
         3033.2           38470 
         3033.5           35430 
         3033.8           32260 
         3034.1           29800 
         3034.4           28500 
         3034.7           28270 
           3035           28590 
         3035.3           28770 
         3035.6           28280 
         3035.9           26900 
         3036.2           24760 
         3036.5           22230 
         3036.8           19820 
         3037.1           18010 
         3037.4           17130 
         3037.7           17290 
           3038           18310 
         3038.3           19880 
         3038.6           21620 
         3038.9           23260 
         3039.2           24630 
         3039.5           25610 
         3039.8           26090 
         3040.1           25980 
         3040.4           25250 
         3040.7           24030 
           3041           22560 
         3041.3           21180 
         3041.6           20280 
         3041.9           20230 
         3042.2           21200 
         3042.5           23110 
         3042.8           25640 
         3043.1           28370 
         3043.4           30900 
         3043.7           32980 
           3044           34410 
         3044.3           35160 
         3044.6           35290 
         3044.9           34940 
         3045.2           34230 
         3045.5           33170 
         3045.8           31660 
         3046.1           29590 
         3046.4           26920 
         3046.7           23900 
           3047           20980 
         3047.3           18670 
         3047.6           17400 
         3047.9           17360 
         3048.2           18490 
         3048.5           20530 
         3048.8           23050 
         3049.1           25470 
         3049.4           27270 
         3049.7           28100 
           3050           27980 
         3050.3           27270 
         3050.6           26550 
         3050.9           26350 
         3051.2           26890 
         3051.5           28070 
         3051.8           29490 
         3052.1           30670 
         3052.4           31150 
         3052.7           30690 
           3053           29310 
         3053.3           27350 
         3053.6           25250 
         3053.9           23510 
         3054.2           22440 
         3054.5           22190 
         3054.8           22640 
         3055.1           23510 
         3055.4           24410 
         3055.7           24970 
           3056           24910 
         3056.3           24180 
         3056.6           22910 
         3056.9           21380 
         3057.2           19880 
         3057.5           18630 
         3057.8           17680 
         3058.1           16990 
         3058.4           16530 
         3058.7           16400 
           3059           16860 
         3059.3           18190 
         3059.6           20530 
         3059.9           23770 
         3060.2           27530 
         3060.5           31340 
         3060.8           34730 
         3061.1           37440 
         3061.4           39410 
         3061.7           40630 
           3062           41030 
         3062.3           40370 
         3062.6           38400 
         3062.9           35120 
         3063.2           30970 
         3063.5           26750 
         3063.8           23280 
         3064.1           21120 
         3064.4           20350 
         3064.7           20600 
           3065           21270 
         3065.3           21770 
         3065.6           21770 
         3065.9           21240 
         3066.2           20430 
         3066.5           19710 
         3066.8           19430 
         3067.1           19850 
         3067.4           21110 
         3067.7           23240 
           3068           26120 
         3068.3           29400 
         3068.6           32520 
         3068.9           34860 
         3069.2           36010 
         3069.5           35970 
         3069.8           35280 
         3070.1           34780 
         3070.4           35250 
         3070.7           37050 
           3071           40000 
         3071.3           43510 
         3071.6           46920 
         3071.9           49740 
         3072.2           51710 
         3072.5           52740 
         3072.8           52770 
         3073.1           51870 
         3073.4           50270 
         3073.7           48350 
           3074           46450 
         3074.3           44720 
         3074.6           43200 
         3074.9           42010 
         3075.2           41550 
         3075.5           42340 
         3075.8           44680 
         3076.1           48210 
         3076.4           51950 
         3076.7           54670 
           3077           55490 
         3077.3           54300 
         3077.6           51770 
         3077.9           48970 
         3078.2           46870 
         3078.5           45900 
         3078.8           45790 
         3079.1           45820 
         3079.4           45170 
         3079.7           43330 
           3080           40220 
         3080.3           36170 
         3080.6           31760 
         3080.9           27610 
         3081.2           24250 
         3081.5           22040 
         3081.8           21070 
         3082.1           21180 
         3082.4           22040 
         3082.7           23290 
           3083           24690 
         3083.3           26240 
         3083.6           28110 
         3083.9           30440 
         3084.2           33250 
         3084.5           36360 
         3084.8           39450 
         3085.1           42180 
         3085.4           44160 
         3085.7           45150 
           3086           45240 
         3086.3           44900 
         3086.6           44900 
         3086.9           45940 
         3087.2           48380 
         3087.5           51990 
         3087.8           55980 
         3088.1           59090 
         3088.4           60070 
         3088.7           58140 
           3089           53480 
         3089.3           47120 
         3089.6           40550 
         3089.9           34910 
         3090.2           30650 
         3090.5           27540 
         3090.8           25030 
         3091.1           22660 
         3091.4           20280 
         3091.7           17980 
           3092           16060 
         3092.3           14900 
         3092.6           14860 
         3092.9           16120 
         3093.2           18580 
         3093.5           21840 
         3093.8           25360 
         3094.1           28550 
         3094.4           30960 
         3094.7           32320 
           3095           32540 
         3095.3           31720 
         3095.6           30180 
         3095.9           28410 
         3096.2           27080 
         3096.5           26810 
         3096.8           27970 
         3097.1           30460 
         3097.4           33570 
         3097.7           36190 
           3098           37270 
         3098.3           36190 
         3098.6           33130 
         3098.9           28850 
         3099.2           24450 
         3099.5           20860 
         3099.8           18620 
         3100.1           17770 
         3100.4           17950 
         3100.7           18720 
           3101           19760 
         3101.3           23060 
         3101.6           26110 
         3101.9           30460 
         3102.2           35930 
         3102.5           41910 
         3102.8           47720 
         3103.1           52840 
         3103.4           57020 
         3103.7           60150 
           3104           61930 
         3104.3           61880 
         3104.6           59580 
         3104.9           55080 
         3105.2           49150 
         3105.5           42980 
         3105.8           37770 
         3106.1           34330 
         3106.4           32840 
         3106.7           33040 
           3107           34410 
         3107.3           36350 
         3107.6           38300 
         3107.9           39880 
         3108.2           40890 
         3108.5           41410 
         3108.8           41800 
         3109.1           42590 
         3109.4           44350 
         3109.7           47560 
           3110           52460 
         3110.3           58870 
         3110.6           66160 
         3110.9           73300 
         3111.2           79190 
         3111.5           82900 
         3111.8           83930 
         3112.1           82260 
         3112.4           78340 
         3112.7           73220 
           3113           68520 
         3113.3           66100 
         3113.6           67510 
         3113.9           73330 
         3114.2           82860 
         3114.5           94160 
         3114.8          104700 
         3115.1          111500 
         3115.4          113000 
         3115.7          108500 
           3116           98440 
         3116.3           85310 
         3116.6           71910 
         3116.9           60890 
         3117.2           53760 
         3117.5           50600 
         3117.8           50330 
         3118.1           51390 
         3118.4           52430 
         3118.7           52870 
           3119           53010 
         3119.3           53750 
         3119.6           56020 
         3119.9           60020 
         3120.2           64840 
         3120.5           68680 
         3120.8           69660 
         3121.1           66960 
         3121.4           61340 
         3121.7           54870 
           3122           50010 
         3122.3           48620 
         3122.6           51280 
         3122.9           57240 
         3123.2           64750 
         3123.5           71710 
         3123.8           76410 
         3124.1           78070 
         3124.4           77140 
         3124.7           74990 
           3125           73330 
         3125.3           73640 
         3125.6           76640 
         3125.9           82120 
         3126.2           88810 
         3126.5           94510 
         3126.8           96780 
         3127.1           93960 
         3127.4           86120 
         3127.7           75180 
           3128           64000 
         3128.3           55120 
         3128.6           49830 
         3128.9           47940 
         3129.2           48260 
         3129.5           49360 
         3129.8           50240 
         3130.1           50690 
         3130.4           51060 
         3130.7           51880 
           3131           53350 
         3131.3           55080 
         3131.6           56290 
         3131.9           56170 
         3132.2           54290 
         3132.5           50880 
         3132.8           46700 
         3133.1           42920 
         3133.4           40800 
         3133.7           41380 
           3134           45010 
         3134.3           51040 
         3134.6           57810 
         3134.9           63280 
         3135.2           65960 
         3135.5           65640 
         3135.8           63490 
         3136.1           61390 
         3136.4           61140 
         3136.7           63940 
           3137           70160 
         3137.3           79380 
         3137.6           90540 
         3137.9          102000 
         3138.2          112100 
         3138.5          119100 
         3138.8          122000 
         3139.1          120700 
         3139.4          116100 
         3139.7          109800 
           3140          103600 
         3140.3           98580 
         3140.6           94700 
         3140.9           91130 
         3141.2           87060 
         3141.5           82400 
         3141.8           77680 
         3142.1           73420 
         3142.4           69600 
         3142.7           65690 
           3143           61330 
         3143.3           56680 
         3143.6           52460 
         3143.9           49510 
         3144.2           48450 
         3144.5           49530 
         3144.8           52670 
         3145.1           57370 
         3145.4           62520 
         3145.7           66620 
           3146           68300 
         3146.3           67280 
         3146.6           64700 
         3146.9           62900 
         3147.2           64630 
         3147.5           72000 
         3147.8           85590 
         3148.1          104000 
         3148.4          123800 
         3148.7          140600 
           3149          150400 
         3149.3          151700 
         3149.6          145200 
         3149.9          133600 
         3150.2          119900 
         3150.5          106700 
         3150.8           95460 
         3151.1           86370 
         3151.4           79250 
         3151.7           73760 
           3152           69650 
         3152.3           66780 
         3152.6           64930 
         3152.9           63900 
         3153.2           63590 
         3153.5           64350 
         3153.8           66930 
         3154.1           71940 
         3154.4           79020 
         3154.7           86450 
           3155           91720 
         3155.3           92830 
         3155.6           89430 
         3155.9           82880 
         3156.2           75520 
         3156.5           69500 
         3156.8           66080 
         3157.1           65430 
         3157.4           66900 
         3157.7           69590 
           3158           72690 
         3158.3           75720 
         3158.6           78320 
         3158.9           80050 
         3159.2           80220 
         3159.5           78230 
         3159.8           74020 
         3160.1           68380 
         3160.4           62810 
         3160.7           59110 
           3161           58860 
         3161.3           63260 
         3161.6           72970 
         3161.9           87780 
         3162.2          106100 
         3162.5          124800 
         3162.8          139300 
         3163.1          145800 
         3163.4          142500 
         3163.7          130800 
           3164          114500 
         3164.3           98260 
         3164.6           85280 
         3164.9           77270 
         3165.2           74620 
         3165.5           77060 
         3165.8           84010 
         3166.1           94480 
         3166.4          106800 
         3166.7          118900 
           3167          128200 
         3167.3          132800 
         3167.6          131800 
         3167.9          126400 
         3168.2          118900 
         3168.5          112800 
         3168.8          110700 
         3169.1          114100 
         3169.4          122300 
         3169.7          133200 
           3170          144500 
         3170.3          154300 
         3170.6          162500 
         3170.9          170200 
         3171.2          179200 
         3171.5          190000 
         3171.8          201000 
         3172.1          209400 
         3172.4          213000 
         3172.7          212500 
           3173          211800 
         3173.3          215400 
         3173.6          225500 
         3173.9          240100 
         3174.2          255100 
         3174.5          267300 
         3174.8          276300 
         3175.1          284200 
         3175.4          292400 
         3175.7          299700 
           3176          302100 
         3176.3          295200 
         3176.6          276600 
         3176.9          248400 
         3177.2          216600 
         3177.5          187600 
         3177.8          166400 
         3178.1          153400 
