# Granada HRES Library
# atmosphere = Phoenix  (atmosphere model used)
# feh = 3  (value for [Fe/H] for the model.)
# logg = 4.5 log(cm/s2) (value for Log(G) for the model.)
# teff = 4000 K (value for the effective temperature for the model. Temperatures are given in K)
#
# column 1: WAVELENGTH (ANGSTROM), Wavelength in Angstrom
# column 2: FLUX (ERG/CM2/S/A), Flux in erg/cm2/s/A
         3000.2            3156 
         3000.5            2982 
         3000.8            2857 
         3001.1            2775 
         3001.4            2710 
         3001.7            2630 
           3002            2522 
         3002.3            2409 
         3002.6            2343 
         3002.9            2385 
         3003.2            2576 
         3003.5            2919 
         3003.8            3382 
         3004.1            3902 
         3004.4            4410 
         3004.7            4843 
           3005            5153 
         3005.3            5313 
         3005.6            5317 
         3005.9            5174 
         3006.2            4915 
         3006.5            4590 
         3006.8            4251 
         3007.1            3956 
         3007.4            3749 
         3007.7            3653 
           3008            3674 
         3008.3            3800 
         3008.6            4007 
         3008.9            4281 
         3009.2            4611 
         3009.5            4985 
         3009.8            5372 
         3010.1            5709 
         3010.4            5920 
         3010.7            5957 
           3011            5825 
         3011.3            5595 
         3011.6            5368 
         3011.9            5229 
         3012.2            5212 
         3012.5            5290 
         3012.8            5406 
         3013.1            5506 
         3013.4            5554 
         3013.7            5541 
           3014            5472 
         3014.3            5369 
         3014.6            5255 
         3014.9            5157 
         3015.2            5092 
         3015.5            5067 
         3015.8            5081 
         3016.1            5122 
         3016.4            5167 
         3016.7            5191 
           3017            5168 
         3017.3            5095 
         3017.6            4979 
         3017.9            4835 
         3018.2            4669 
         3018.5            4471 
         3018.8            4230 
         3019.1            3936 
         3019.4            3593 
         3019.7            3217 
           3020            2850 
         3020.3            2549 
         3020.6            2381 
         3020.9            2393 
         3021.2            2598 
         3021.5            2963 
         3021.8            3420 
         3022.1            3879 
         3022.4            4254 
         3022.7            4483 
           3023            4533 
         3023.3            4418 
         3023.6            4194 
         3023.9            3939 
         3024.2            3723 
         3024.5            3578 
         3024.8            3493 
         3025.1            3439 
         3025.4            3404 
         3025.7            3402 
           3026            3466 
         3026.3            3616 
         3026.6            3837 
         3026.9            4087 
         3027.2            4319 
         3027.5            4506 
         3027.8            4655 
         3028.1            4795 
         3028.4            4958 
         3028.7            5161 
           3029            5389 
         3029.3            5608 
         3029.6            5771 
         3029.9            5849 
         3030.2            5838 
         3030.5            5773 
         3030.8            5718 
         3031.1            5748 
         3031.4            5912 
         3031.7            6199 
           3032            6531 
         3032.3            6781 
         3032.6            6839 
         3032.9            6660 
         3033.2            6290 
         3033.5            5842 
         3033.8            5446 
         3034.1            5210 
         3034.4            5175 
         3034.7            5307 
           3035            5516 
         3035.3            5691 
         3035.6            5746 
         3035.9            5642 
         3036.2            5394 
         3036.5            5062 
         3036.8            4733 
         3037.1            4498 
         3037.4            4421 
         3037.7            4522 
           3038            4764 
         3038.3            5075 
         3038.6            5376 
         3038.9            5614 
         3039.2            5770 
         3039.5            5841 
         3039.8            5825 
         3040.1            5716 
         3040.4            5514 
         3040.7            5241 
           3041            4946 
         3041.3            4702 
         3041.6            4581 
         3041.9            4635 
         3042.2            4867 
         3042.5            5229 
         3042.8            5635 
         3043.1            5999 
         3043.4            6267 
         3043.7            6424 
           3044            6492 
         3044.3            6513 
         3044.6            6533 
         3044.9            6578 
         3045.2            6644 
         3045.5            6688 
         3045.8            6644 
         3046.1            6455 
         3046.4            6104 
         3046.7            5630 
           3047            5120 
         3047.3            4679 
         3047.6            4394 
         3047.9            4312 
         3048.2            4436 
         3048.5            4727 
         3048.8            5118 
         3049.1            5516 
         3049.4            5831 
         3049.7            5996 
           3050            5997 
         3050.3            5879 
         3050.6            5721 
         3050.9            5595 
         3051.2            5539 
         3051.5            5552 
         3051.8            5607 
         3052.1            5664 
         3052.4            5684 
         3052.7            5636 
           3053            5508 
         3053.3            5313 
         3053.6            5092 
         3053.9            4901 
         3054.2            4784 
         3054.5            4759 
         3054.8            4808 
         3055.1            4887 
         3055.4            4949 
         3055.7            4959 
           3056            4906 
         3056.3            4803 
         3056.6            4678 
         3056.9            4562 
         3057.2            4479 
         3057.5            4436 
         3057.8            4421 
         3058.1            4413 
         3058.4            4405 
         3058.7            4421 
           3059            4513 
         3059.3            4731 
         3059.6            5090 
         3059.9            5558 
         3060.2            6063 
         3060.5            6516 
         3060.8            6847 
         3061.1            7022 
         3061.4            7045 
         3061.7            6942 
           3062            6734 
         3062.3            6421 
         3062.6            5993 
         3062.9            5463 
         3063.2            4884 
         3063.5            4341 
         3063.8            3920 
         3064.1            3669 
         3064.4            3582 
         3064.7            3608 
           3065            3674 
         3065.3            3727 
         3065.6            3746 
         3065.9            3745 
         3066.2            3753 
         3066.5            3795 
         3066.8            3879 
         3067.1            4001 
         3067.4            4157 
         3067.7            4346 
           3068            4567 
         3068.3            4805 
         3068.6            5024 
         3068.9            5177 
         3069.2            5227 
         3069.5            5170 
         3069.8            5049 
         3070.1            4938 
         3070.4            4909 
         3070.7            5011 
           3071            5246 
         3071.3            5592 
         3071.6            6014 
         3071.9            6482 
         3072.2            6962 
         3072.5            7403 
         3072.8            7736 
         3073.1            7910 
         3073.4            7916 
         3073.7            7796 
           3074            7612 
         3074.3            7417 
         3074.6            7244 
         3074.9            7121 
         3075.2            7092 
         3075.5            7200 
         3075.8            7455 
         3076.1            7809 
         3076.4            8158 
         3076.7            8388 
           3077            8436 
         3077.3            8312 
         3077.6            8086 
         3077.9            7850 
         3078.2            7667 
         3078.5            7547 
         3078.8            7452 
         3079.1            7315 
         3079.4            7085 
         3079.7            6744 
           3080            6308 
         3080.3            5816 
         3080.6            5315 
         3080.9            4851 
         3081.2            4467 
         3081.5            4196 
         3081.8            4057 
         3082.1            4041 
         3082.4            4113 
         3082.7            4221 
           3083            4326 
         3083.3            4418 
         3083.6            4517 
         3083.9            4651 
         3084.2            4837 
         3084.5            5075 
         3084.8            5351 
         3085.1            5640 
         3085.4            5906 
         3085.7            6116 
           3086            6262 
         3086.3            6382 
         3086.6            6551 
         3086.9            6845 
         3087.2            7298 
         3087.5            7870 
         3087.8            8447 
         3088.1            8874 
         3088.4            9010 
         3088.7            8787 
           3089            8244 
         3089.3            7503 
         3089.6            6723 
         3089.9            6032 
         3090.2            5487 
         3090.5            5079 
         3090.8            4759 
         3091.1            4473 
         3091.4            4184 
         3091.7            3888 
           3092            3615 
         3092.3            3427 
         3092.6            3396 
         3092.9            3571 
         3093.2            3949 
         3093.5            4467 
         3093.8            5026 
         3094.1            5525 
         3094.4            5886 
         3094.7            6074 
           3095            6089 
         3095.3            5962 
         3095.6            5756 
         3095.9            5559 
         3096.2            5472 
         3096.5            5582 
         3096.8            5920 
         3097.1            6427 
         3097.4            6961 
         3097.7            7337 
           3098            7401 
         3098.3            7097 
         3098.6            6489 
         3098.9            5739 
         3099.2            5037 
         3099.5            4541 
         3099.8            4328 
         3100.1            4375 
         3100.4            4590 
         3100.7            4856 
           3101            5090 
         3101.3            5460 
         3101.6            5729 
         3101.9            6135 
         3102.2            6673 
         3102.5            7283 
         3102.8            7871 
         3103.1            8360 
         3103.4            8713 
         3103.7            8922 
           3104            8983 
         3104.3            8878 
         3104.6            8588 
         3104.9            8117 
         3105.2            7518 
         3105.5            6880 
         3105.8            6303 
         3106.1            5861 
         3106.4            5595 
         3106.7            5510 
           3107            5589 
         3107.3            5788 
         3107.6            6051 
         3107.9            6309 
         3108.2            6511 
         3108.5            6637 
         3108.8            6706 
         3109.1            6768 
         3109.4            6877 
         3109.7            7081 
           3110            7392 
         3110.3            7780 
         3110.6            8169 
         3110.9            8451 
         3111.2            8533 
         3111.5            8375 
         3111.8            8012 
         3112.1            7544 
         3112.4            7095 
         3112.7            6774 
           3113            6662 
         3113.3            6799 
         3113.6            7188 
         3113.9            7806 
         3114.2            8602 
         3114.5            9495 
         3114.8           10370 
         3115.1           11080 
         3115.4           11480 
         3115.7           11470 
           3116           11040 
         3116.3           10330 
         3116.6            9551 
         3116.9            8941 
         3117.2            8673 
         3117.5            8784 
         3117.8            9179 
         3118.1            9681 
         3118.4           10110 
         3118.7           10370 
           3119           10470 
         3119.3           10500 
         3119.6           10590 
         3119.9           10800 
         3120.2           11100 
         3120.5           11320 
         3120.8           11260 
         3121.1           10790 
         3121.4            9970 
         3121.7            9008 
           3122            8185 
         3122.3            7715 
         3122.6            7663 
         3122.9            7937 
         3123.2            8362 
         3123.5            8761 
         3123.8            9035 
         3124.1            9183 
         3124.4            9269 
         3124.7            9375 
           3125            9550 
         3125.3            9804 
         3125.6           10110 
         3125.9           10470 
         3126.2           10850 
         3126.5           11180 
         3126.8           11350 
         3127.1           11240 
         3127.4           10780 
         3127.7           10040 
           3128            9187 
         3128.3            8377 
         3128.6            7751 
         3128.9            7363 
         3129.2            7204 
         3129.5            7242 
         3129.8            7453 
         3130.1            7844 
         3130.4            8437 
         3130.7            9222 
           3131           10110 
         3131.3           10940 
         3131.6           11510 
         3131.9           11640 
         3132.2           11320 
         3132.5           10640 
         3132.8            9791 
         3133.1            8963 
         3133.4            8320 
         3133.7            7978 
           3134            7976 
         3134.3            8261 
         3134.6            8683 
         3134.9            9045 
         3135.2            9198 
         3135.5            9124 
         3135.8            8932 
         3136.1            8807 
         3136.4            8919 
         3136.7            9356 
           3137           10110 
         3137.3           11050 
         3137.6           11990 
         3137.9           12710 
         3138.2           13040 
         3138.5           12920 
         3138.8           12470 
         3139.1           11850 
         3139.4           11260 
         3139.7           10860 
           3140           10690 
         3140.3           10750 
         3140.6           10950 
         3140.9           11170 
         3141.2           11370 
         3141.5           11510 
         3141.8           11620 
         3142.1           11660 
         3142.4           11570 
         3142.7           11270 
           3143           10770 
         3143.3           10150 
         3143.6            9570 
         3143.9            9137 
         3144.2            8863 
         3144.5            8691 
         3144.8            8555 
         3145.1            8411 
         3145.4            8246 
         3145.7            8064 
           3146            7887 
         3146.3            7772 
         3146.6            7817 
         3146.9            8134 
         3147.2            8811 
         3147.5            9863 
         3147.8           11200 
         3148.1           12630 
         3148.4           13880 
         3148.7           14680 
           3149           14850 
         3149.3           14420 
         3149.6           13540 
         3149.9           12480 
         3150.2           11440 
         3150.5           10580 
         3150.8            9914 
         3151.1            9440 
         3151.4            9127 
         3151.7            8942 
           3152            8857 
         3152.3            8831 
         3152.6            8820 
         3152.9            8796 
         3153.2            8764 
         3153.5            8784 
         3153.8            8943 
         3154.1            9296 
         3154.4            9806 
         3154.7           10340 
           3155           10740 
         3155.3           10910 
         3155.6           10890 
         3155.9           10830 
         3156.2           10860 
         3156.5           11070 
         3156.8           11440 
         3157.1           11900 
         3157.4           12400 
         3157.7           12910 
           3158           13440 
         3158.3           14010 
         3158.6           14620 
         3158.9           15150 
         3159.2           15410 
         3159.5           15250 
         3159.8           14660 
         3160.1           13790 
         3160.4           12930 
         3160.7           12330 
           3161           12130 
         3161.3           12300 
         3161.6           12800 
         3161.9           13610 
         3162.2           14700 
         3162.5           15960 
         3162.8           17160 
         3163.1           17990 
         3163.4           18280 
         3163.7           18050 
           3164           17510 
         3164.3           16870 
         3164.6           16330 
         3164.9           15950 
         3165.2           15800 
         3165.5           15960 
         3165.8           16560 
         3166.1           17680 
         3166.4           19220 
         3166.7           20950 
           3167           22460 
         3167.3           23350 
         3167.6           23380 
         3167.9           22590 
         3168.2           21330 
         3168.5           20120 
         3168.8           19420 
         3169.1           19410 
         3169.4           19930 
         3169.7           20550 
           3170           20880 
         3170.3           20720 
         3170.6           20170 
         3170.9           19580 
         3171.2           19270 
         3171.5           19400 
         3171.8           19860 
         3172.1           20390 
         3172.4           20790 
         3172.7           21100 
           3173           21610 
         3173.3           22640 
         3173.6           24300 
         3173.9           26300 
         3174.2           28160 
         3174.5           29410 
         3174.8           29860 
         3175.1           29630 
         3175.4           28950 
         3175.7           27980 
           3176           26730 
         3176.3           25260 
         3176.6           23620 
         3176.9           22020 
         3177.2           20720 
         3177.5           19900 
         3177.8           19560 
         3178.1           19510 
