# Granada HRES Library
# atmosphere = Phoenix  (atmosphere model used)
# feh = 3  (value for [Fe/H] for the model.)
# logg = 5.5 log(cm/s2) (value for Log(G) for the model.)
# teff = 4500 K (value for the effective temperature for the model. Temperatures are given in K)
#
# column 1: WAVELENGTH (ANGSTROM), Wavelength in Angstrom
# column 2: FLUX (ERG/CM2/S/A), Flux in erg/cm2/s/A
         3000.2           14880 
         3000.5           14240 
         3000.8           13770 
         3001.1           13450 
         3001.4           13180 
         3001.7           12840 
           3002           12360 
         3002.3           11860 
         3002.6           11610 
         3002.9           11910 
         3003.2           12960 
         3003.5           14790 
         3003.8           17180 
         3004.1           19840 
         3004.4           22380 
         3004.7           24510 
           3005           26000 
         3005.3           26750 
         3005.6           26690 
         3005.9           25900 
         3006.2           24470 
         3006.5           22610 
         3006.8           20620 
         3007.1           18820 
         3007.4           17460 
         3007.7           16700 
           3008           16590 
         3008.3           17050 
         3008.6           17970 
         3008.9           19250 
         3009.2           20800 
         3009.5           22540 
         3009.8           24340 
         3010.1           25930 
         3010.4           26990 
         3010.7           27300 
           3011           26880 
         3011.3           26050 
         3011.6           25270 
         3011.9           24920 
         3012.2           25150 
         3012.5           25820 
         3012.8           26620 
         3013.1           27230 
         3013.4           27450 
         3013.7           27250 
           3014           26710 
         3014.3           25940 
         3014.6           25130 
         3014.9           24370 
         3015.2           23780 
         3015.5           23400 
         3015.8           23240 
         3016.1           23250 
         3016.4           23360 
         3016.7           23430 
           3017           23320 
         3017.3           22980 
         3017.6           22450 
         3017.9           21780 
         3018.2           21000 
         3018.5           20080 
         3018.8           19000 
         3019.1           17690 
         3019.4           16160 
         3019.7           14490 
           3020           12840 
         3020.3           11470 
         3020.6           10690 
         3020.9           10730 
         3021.2           11650 
         3021.5           13320 
         3021.8           15420 
         3022.1           17550 
         3022.4           19310 
         3022.7           20390 
           3023           20650 
         3023.3           20170 
         3023.6           19230 
         3023.9           18200 
         3024.2           17380 
         3024.5           16870 
         3024.8           16580 
         3025.1           16380 
         3025.4           16240 
         3025.7           16290 
           3026           16790 
         3026.3           17880 
         3026.6           19520 
         3026.9           21460 
         3027.2           23360 
         3027.5           24990 
         3027.8           26230 
         3028.1           27120 
         3028.4           27790 
         3028.7           28350 
           3029           28820 
         3029.3           29170 
         3029.6           29300 
         3029.9           29110 
         3030.2           28610 
         3030.5           27910 
         3030.8           27290 
         3031.1           27100 
         3031.4           27630 
         3031.7           28910 
           3032           30640 
         3032.3           32270 
         3032.6           33190 
         3032.9           33080 
         3033.2           31970 
         3033.5           30250 
         3033.8           28520 
         3034.1           27310 
         3034.4           26890 
         3034.7           27180 
           3035           27800 
         3035.3           28250 
         3035.6           28100 
         3035.9           27190 
         3036.2           25620 
         3036.5           23670 
         3036.8           21790 
         3037.1           20390 
         3037.4           19800 
         3037.7           20120 
           3038           21190 
         3038.3           22690 
         3038.6           24260 
         3038.9           25590 
         3039.2           26510 
         3039.5           26940 
         3039.8           26830 
         3040.1           26210 
         3040.4           25150 
         3040.7           23800 
           3041           22400 
         3041.3           21230 
         3041.6           20600 
         3041.9           20770 
         3042.2           21800 
         3042.5           23530 
         3042.8           25620 
         3043.1           27670 
         3043.4           29330 
         3043.7           30460 
           3044           31020 
         3044.3           31170 
         3044.6           31110 
         3044.9           30990 
         3045.2           30860 
         3045.5           30610 
         3045.8           30030 
         3046.1           28880 
         3046.4           27120 
         3046.7           24930 
           3047           22690 
         3047.3           20850 
         3047.6           19780 
         3047.9           19660 
         3048.2           20480 
         3048.5           22010 
         3048.8           23900 
         3049.1           25740 
         3049.4           27120 
         3049.7           27790 
           3050           27760 
         3050.3           27300 
         3050.6           26810 
         3050.9           26640 
         3051.2           26960 
         3051.5           27680 
         3051.8           28570 
         3052.1           29310 
         3052.4           29650 
         3052.7           29420 
           3053           28610 
         3053.3           27350 
         3053.6           25940 
         3053.9           24700 
         3054.2           23920 
         3054.5           23710 
         3054.8           24020 
         3055.1           24600 
         3055.4           25150 
         3055.7           25400 
           3056           25170 
         3056.3           24460 
         3056.6           23370 
         3056.9           22140 
         3057.2           20980 
         3057.5           20050 
         3057.8           19410 
         3058.1           19010 
         3058.4           18820 
         3058.7           18910 
           3059           19480 
         3059.3           20700 
         3059.6           22610 
         3059.9           25050 
         3060.2           27650 
         3060.5           30020 
         3060.8           31820 
         3061.1           32920 
         3061.4           33350 
         3061.7           33260 
           3062           32720 
         3062.3           31680 
         3062.6           30060 
         3062.9           27830 
         3063.2           25210 
         3063.5           22610 
         3063.8           20490 
         3064.1           19160 
         3064.4           18650 
         3064.7           18740 
           3065           19090 
         3065.3           19350 
         3065.6           19340 
         3065.9           19060 
         3066.2           18650 
         3066.5           18300 
         3066.8           18160 
         3067.1           18320 
         3067.4           18840 
         3067.7           19720 
           3068           20910 
         3068.3           22310 
         3068.6           23700 
         3068.9           24860 
         3069.2           25580 
         3069.5           25840 
         3069.8           25790 
         3070.1           25740 
         3070.4           26030 
         3070.7           26830 
           3071           28130 
         3071.3           29760 
         3071.6           31550 
         3071.9           33380 
         3072.2           35160 
         3072.5           36730 
         3072.8           37870 
         3073.1           38350 
         3073.4           38140 
         3073.7           37400 
           3074           36400 
         3074.3           35350 
         3074.6           34380 
         3074.9           33600 
         3075.2           33220 
         3075.5           33470 
         3075.8           34480 
         3076.1           36080 
         3076.4           37830 
         3076.7           39200 
           3077           39790 
         3077.3           39540 
         3077.6           38670 
         3077.9           37600 
         3078.2           36700 
         3078.5           36120 
         3078.8           35740 
         3079.1           35240 
         3079.4           34340 
         3079.7           32860 
           3080           30850 
         3080.3           28480 
         3080.6           25990 
         3080.9           23600 
         3081.2           21540 
         3081.5           19970 
         3081.8           19030 
         3082.1           18730 
         3082.4           18970 
         3082.7           19540 
           3083           20290 
         3083.3           21120 
         3083.6           22040 
         3083.9           23070 
         3084.2           24220 
         3084.5           25440 
         3084.8           26680 
         3085.1           27890 
         3085.4           28970 
         3085.7           29790 
           3086           30320 
         3086.3           30690 
         3086.6           31180 
         3086.9           32100 
         3087.2           33640 
         3087.5           35660 
         3087.8           37760 
         3088.1           39310 
         3088.4           39750 
         3088.7           38780 
           3089           36530 
         3089.3           33490 
         3089.6           30310 
         3089.9           27480 
         3090.2           25220 
         3090.5           23470 
         3090.8           22000 
         3091.1           20580 
         3091.4           19090 
         3091.7           17550 
           3092           16140 
         3092.3           15150 
         3092.6           14920 
         3092.9           15670 
         3093.2           17380 
         3093.5           19760 
         3093.8           22340 
         3094.1           24660 
         3094.4           26340 
         3094.7           27230 
           3095           27330 
         3095.3           26780 
         3095.6           25870 
         3095.9           24920 
         3096.2           24340 
         3096.5           24470 
         3096.8           25460 
         3097.1           27150 
         3097.4           29040 
         3097.7           30440 
           3098           30760 
         3098.3           29720 
         3098.6           27520 
         3098.9           24700 
         3099.2           21960 
         3099.5           19900 
         3099.8           18870 
         3100.1           18850 
         3100.4           19520 
         3100.7           20470 
           3101           21380 
         3101.3           23060 
         3101.6           24330 
         3101.9           26210 
         3102.2           28690 
         3102.5           31540 
         3102.8           34400 
         3103.1           36920 
         3103.4           38880 
         3103.7           40160 
           3104           40610 
         3104.3           40130 
         3104.6           38700 
         3104.9           36460 
         3105.2           33800 
         3105.5           31210 
         3105.8           29110 
         3106.1           27760 
         3106.4           27190 
         3106.7           27270 
           3107           27840 
         3107.3           28680 
         3107.6           29640 
         3107.9           30560 
         3108.2           31320 
         3108.5           31950 
         3108.8           32550 
         3109.1           33320 
         3109.4           34410 
         3109.7           35860 
           3110           37660 
         3110.3           39590 
         3110.6           41330 
         3110.9           42540 
         3111.2           42940 
         3111.5           42480 
         3111.8           41350 
         3112.1           39920 
         3112.4           38570 
         3112.7           37680 
           3113           37620 
         3113.3           38690 
         3113.6           41040 
         3113.9           44630 
         3114.2           49150 
         3114.5           53990 
         3114.8           58320 
         3115.1           61270 
         3115.4           62120 
         3115.7           60530 
           3116           56760 
         3116.3           51630 
         3116.6           46290 
         3116.9           41930 
         3117.2           39300 
         3117.5           38540 
         3117.8           39230 
         3118.1           40650 
         3118.4           42100 
         3118.7           43240 
           3119           44180 
         3119.3           45390 
         3119.6           47330 
         3119.9           50100 
         3120.2           53140 
         3120.5           55390 
         3120.8           55770 
         3121.1           53750 
         3121.4           49710 
         3121.7           44810 
           3122           40470 
         3122.3           37740 
         3122.6           36980 
         3122.9           37920 
         3123.2           39870 
         3123.5           42070 
         3123.8           43940 
         3124.1           45250 
         3124.4           46040 
         3124.7           46580 
           3125           47260 
         3125.3           48440 
         3125.6           50490 
         3125.9           53490 
         3126.2           57180 
         3126.5           60740 
         3126.8           62960 
         3127.1           62830 
         3127.4           60000 
         3127.7           55110 
           3128           49440 
         3128.3           44300 
         3128.6           40510 
         3128.9           38240 
         3129.2           37240 
         3129.5           37140 
         3129.8           37720 
         3130.1           39000 
         3130.4           41050 
         3130.7           43900 
           3131           47160 
         3131.3           50170 
         3131.6           52090 
         3131.9           52290 
         3132.2           50620 
         3132.5           47430 
         3132.8           43470 
         3133.1           39590 
         3133.4           36640 
         3133.7           35270 
           3134           35730 
         3134.3           37760 
         3134.6           40590 
         3134.9           43180 
         3135.2           44730 
         3135.5           45060 
         3135.8           44710 
         3136.1           44660 
         3136.4           45980 
         3136.7           49420 
           3137           55120 
         3137.3           62420 
         3137.6           69980 
         3137.9           76050 
         3138.2           79190 
         3138.5           78750 
         3138.8           75110 
         3139.1           69470 
         3139.4           63270 
         3139.7           57750 
           3140           53650 
         3140.3           51160 
         3140.6           49980 
         3140.9           49580 
         3141.2           49500 
         3141.5           49490 
         3141.8           49480 
         3142.1           49340 
         3142.4           48820 
         3142.7           47660 
           3143           45870 
         3143.3           43790 
         3143.6           41980 
         3143.9           40810 
         3144.2           40370 
         3144.5           40490 
         3144.8           40920 
         3145.1           41470 
         3145.4           41920 
         3145.7           42070 
           3146           41800 
         3146.3           41280 
         3146.6           41100 
         3146.9           42130 
         3147.2           45140 
         3147.5           50470 
         3147.8           57680 
         3148.1           65570 
         3148.4           72410 
         3148.7           76550 
           3149           77020 
         3149.3           73930 
         3149.6           68320 
         3149.9           61720 
         3150.2           55500 
         3150.5           50590 
         3150.8           47330 
         3151.1           45650 
         3151.4           45220 
         3151.7           45640 
           3152           46440 
         3152.3           47200 
         3152.6           47590 
         3152.9           47420 
         3153.2           46810 
         3153.5           46160 
         3153.8           46070 
         3154.1           47020 
         3154.4           49020 
         3154.7           51500 
           3155           53640 
         3155.3           54810 
         3155.6           54990 
         3155.9           54680 
         3156.2           54590 
         3156.5           55300 
         3156.8           57070 
         3157.1           59840 
         3157.4           63330 
         3157.7           67190 
           3158           71130 
         3158.3           74950 
         3158.6           78340 
         3158.9           80720 
         3159.2           81270 
         3159.5           79300 
         3159.8           74770 
         3160.1           68560 
         3160.4           62210 
         3160.7           57320 
           3161           55020 
         3161.3           55850 
         3161.6           59850 
         3161.9           66700 
         3162.2           75540 
         3162.5           84820 
         3162.8           92360 
         3163.1           96160 
         3163.4           95260 
         3163.7           90320 
           3164           83250 
         3164.3           76310 
         3164.6           71180 
         3164.9           68820 
         3165.2           69590 
         3165.5           73700 
         3165.8           81160 
         3166.1           91390 
         3166.4          103000 
         3166.7          113300 
           3167          120100 
         3167.3          121300 
         3167.6          117200 
         3167.9          109400 
         3168.2          101400 
         3168.5           96250 
         3168.8           96360 
         3169.1          101800 
         3169.4          110500 
         3169.7          119300 
           3170          125000 
         3170.3          126200 
         3170.6          123500 
         3170.9          119400 
         3171.2          116400 
         3171.5          116200 
         3171.8          118500 
         3172.1          121800 
         3172.4          124400 
         3172.7          126000 
           3173          128100 
         3173.3          132700 
         3173.6          140600 
         3173.9          150600 
         3174.2          159600 
         3174.5          165300 
         3174.8          167100 
         3175.1          166200 
         3175.4          164600 
         3175.7          163100 
           3176          160900 
         3176.3          156500 
         3176.6          148900 
         3176.9          138200 
         3177.2          126300 
         3177.5          115500 
         3177.8          107600 
         3178.1          102500 
