# Granada HRES Library
# atmosphere = Phoenix  (atmosphere model used)
# feh = -5  (value for [Fe/H] for the model.)
# logg = 1 log(cm/s2) (value for Log(G) for the model.)
# teff = 3500 K (value for the effective temperature for the model. Temperatures are given in K)
#
# column 1: WAVELENGTH (ANGSTROM), Wavelength in Angstrom
# column 2: FLUX (ERG/CM2/S/A), Flux in erg/cm2/s/A
         3000.2           99.24 
         3000.5           87.33 
         3000.8           79.57 
         3001.1           75.39 
         3001.4           73.27 
         3001.7           71.54 
           3002           69.31 
         3002.3           67.15 
         3002.6           66.96 
         3002.9           71.11 
         3003.2           81.41 
         3003.5           98.38 
         3003.8           121.1 
         3004.1           147.2 
         3004.4           174.1 
         3004.7           198.7 
           3005           218.5 
         3005.3           231.6 
         3005.6           236.5 
         3005.9           232.7 
         3006.2           220.9 
         3006.5           203.1 
         3006.8           182.3 
         3007.1             162 
         3007.4           145.8 
         3007.7             136 
           3008           133.9 
         3008.3           139.7 
         3008.6           152.3 
         3008.9           170.7 
         3009.2           193.9 
         3009.5           220.3 
         3009.8           246.9 
         3010.1           268.7 
         3010.4           280.4 
         3010.7           279.2 
           3011           266.2 
         3011.3           247.2 
         3011.6           229.5 
         3011.9           218.6 
         3012.2           216.6 
         3012.5           221.3 
         3012.8           228.6 
         3013.1           234.7 
         3013.4           237.2 
         3013.7           235.8 
           3014           231.6 
         3014.3           226.6 
         3014.6           222.8 
         3014.9           221.3 
         3015.2           222.5 
         3015.5           225.2 
         3015.8             228 
         3016.1           229.5 
         3016.4           228.9 
         3016.7           225.2 
           3017           218.4 
         3017.3             209 
         3017.6           198.2 
         3017.9           186.8 
         3018.2           174.8 
         3018.5           161.4 
         3018.8             146 
         3019.1           128.6 
         3019.4           109.9 
         3019.7           91.64 
           3020           75.55 
         3020.3           63.63 
         3020.6           57.74 
         3020.9            59.2 
         3021.2           68.26 
         3021.5            83.9 
         3021.8           103.8 
         3022.1           124.8 
         3022.4           143.5 
         3022.7           156.5 
           3023           162.1 
         3023.3           159.7 
         3023.6           151.3 
         3023.9           139.9 
         3024.2           128.7 
         3024.5           119.9 
         3024.8           113.7 
         3025.1           109.7 
         3025.4           107.7 
         3025.7           108.3 
           3026           112.2 
         3026.3           119.7 
         3026.6           129.4 
         3026.9           139.4 
         3027.2           148.1 
         3027.5           155.2 
         3027.8           162.2 
         3028.1           171.1 
         3028.4           183.8 
         3028.7           200.5 
           3029           219.6 
         3029.3             238 
         3029.6           252.4 
         3029.9           260.6 
         3030.2           263.1 
         3030.5           262.9 
         3030.8           265.3 
         3031.1           274.9 
         3031.4           294.1 
         3031.7           320.3 
           3032           346.3 
         3032.3           363.3 
         3032.6             364 
         3032.9           347.3 
         3033.2           317.8 
         3033.5           284.1 
         3033.8             255 
         3034.1             237 
         3034.4           231.7 
         3034.7           236.6 
           3035           245.9 
         3035.3           253.1 
         3035.6             253 
         3035.9           243.5 
         3036.2           225.4 
         3036.5           202.8 
         3036.8           180.6 
         3037.1           164.6 
         3037.4           158.9 
         3037.7           164.9 
           3038           180.6 
         3038.3           201.9 
         3038.6           224.4 
         3038.9           245.4 
         3039.2           263.7 
         3039.5           278.7 
         3039.8           289.2 
         3040.1           293.3 
         3040.4           289.9 
         3040.7           279.5 
           3041           265.7 
         3041.3           253.4 
         3041.6             248 
         3041.9           252.2 
         3042.2           265.2 
         3042.5           282.8 
         3042.8           298.9 
         3043.1           308.9 
         3043.4           311.5 
         3043.7           308.7 
           3044           304.7 
         3044.3           303.3 
         3044.6           306.7 
         3044.9           314.5 
         3045.2           323.8 
         3045.5           329.5 
         3045.8           326.4 
         3046.1           310.9 
         3046.4             283 
         3046.7           246.6 
           3047           208.1 
         3047.3           175.2 
         3047.6           153.5 
         3047.9             146 
         3048.2           152.7 
         3048.5             171 
         3048.8           196.1 
         3049.1             222 
         3049.4           242.2 
         3049.7             252 
           3050           250.2 
         3050.3           239.8 
         3050.6             226 
         3050.9           214.3 
         3051.2           207.7 
         3051.5           206.8 
         3051.8           210.2 
         3052.1           215.1 
         3052.4           218.7 
         3052.7           218.7 
           3053             214 
         3053.3           205.6 
         3053.6           195.9 
         3053.9           187.7 
         3054.2           183.3 
         3054.5           182.8 
         3054.8             185 
         3055.1           187.5 
         3055.4           188.2 
         3055.7             186 
           3056           181.3 
         3056.3           175.3 
         3056.6           169.7 
         3056.9           165.7 
         3057.2           163.9 
         3057.5           163.5 
         3057.8           162.8 
         3058.1           160.4 
         3058.4           156.3 
         3058.7           152.5 
           3059           152.7 
         3059.3           160.6 
         3059.6           177.8 
         3059.9           203.3 
         3060.2           233.3 
         3060.5             263 
         3060.8             288 
         3061.1           305.7 
         3061.4           315.2 
         3061.7           316.6 
           3062           309.8 
         3062.3           294.3 
         3062.6             270 
         3062.9             239 
         3063.2             206 
         3063.5             177 
         3063.8           157.1 
         3064.1           148.1 
         3064.4           148.1 
         3064.7           152.6 
           3065           157.3 
         3065.3           160.1 
         3065.6           162.2 
         3065.9           166.4 
         3066.2           175.1 
         3066.5           188.7 
         3066.8           204.9 
         3067.1             221 
         3067.4           235.1 
         3067.7           247.4 
           3068           258.7 
         3068.3           269.3 
         3068.6             277 
         3068.9           278.6 
         3069.2           271.5 
         3069.5           256.2 
         3069.8           236.4 
         3070.1           218.5 
         3070.4             208 
         3070.7             208 
           3071           218.6 
         3071.3           237.7 
         3071.6           262.7 
         3071.9           291.3 
         3072.2           321.8 
         3072.5           351.8 
         3072.8             378 
         3073.1           397.6 
         3073.4           408.6 
         3073.7           410.5 
           3074           404.1 
         3074.3           391.3 
         3074.6           375.6 
         3074.9           362.3 
         3075.2           357.3 
         3075.5           365.4 
         3075.8           386.7 
         3076.1           415.3 
         3076.4           441.6 
         3076.7           456.2 
           3077           454.7 
         3077.3           438.8 
         3077.6           414.9 
         3077.9           390.4 
         3078.2           370.2 
         3078.5           355.3 
         3078.8           343.6 
         3079.1           331.4 
         3079.4           315.9 
         3079.7             296 
           3080           272.4 
         3080.3           246.8 
         3080.6           221.5 
         3080.9             199 
         3081.2           181.8 
         3081.5           172.1 
         3081.8           170.8 
         3082.1           176.7 
         3082.4           186.2 
         3082.7           195.1 
           3083           200.1 
         3083.3           201.3 
         3083.6           201.7 
         3083.9           205.5 
         3084.2           216.3 
         3084.5           235.4 
         3084.8           261.7 
         3085.1           291.8 
         3085.4           321.4 
         3085.7           346.6 
           3086           366.4 
         3086.3           383.6 
         3086.6           403.2 
         3086.9           429.5 
         3087.2           464.1 
         3087.5           503.3 
         3087.8           539.2 
         3088.1           561.1 
         3088.4           559.6 
         3088.7           530.9 
           3089           479.4 
         3089.3             416 
         3089.6           353.7 
         3089.9           302.3 
         3090.2           265.2 
         3090.5           240.2 
         3090.8           222.1 
         3091.1           206.6 
         3091.4           191.3 
         3091.7           176.5 
           3092           164.3 
         3092.3           158.6 
         3092.6             163 
         3092.9           179.9 
         3093.2           208.6 
         3093.5           245.2 
         3093.8             284 
         3094.1           319.2 
         3094.4           346.3 
         3094.7           362.5 
           3095           366.4 
         3095.3           358.3 
         3095.6           341.6 
         3095.9             324 
         3096.2           316.3 
         3096.5           329.6 
         3096.8           369.9 
         3097.1           433.6 
         3097.4           505.7 
         3097.7           564.4 
           3098           589.1 
         3098.3           569.4 
         3098.6           509.7 
         3098.9           427.1 
         3099.2           343.5 
         3099.5           276.7 
         3099.8           235.2 
         3100.1           217.7 
         3100.4           216.1 
         3100.7           221.7 
           3101           229.5 
         3101.3           262.2 
         3101.6           300.9 
         3101.9           360.2 
         3102.2           435.5 
         3102.5           515.3 
         3102.8           585.5 
         3103.1           636.3 
         3103.4             665 
         3103.7             676 
           3104           674.4 
         3104.3           661.2 
         3104.6           633.5 
         3104.9             588 
         3105.2           526.5 
         3105.5           456.3 
         3105.8           388.3 
         3106.1           332.6 
         3106.4           295.9 
         3106.7             281 
           3107             287 
         3107.3           309.5 
         3107.6           340.9 
         3107.9           372.4 
         3108.2           396.2 
         3108.5           407.6 
         3108.8           406.5 
         3109.1           397.6 
         3109.4           388.5 
         3109.7           387.4 
           3110           399.4 
         3110.3           424.9 
         3110.6             457 
         3110.9           484.1 
         3111.2           494.4 
         3111.5           480.9 
         3111.8           445.5 
         3112.1           397.2 
         3112.4             349 
         3112.7           311.9 
           3113             293 
         3113.3           294.8 
         3113.6           316.6 
         3113.9           356.4 
         3114.2           411.4 
         3114.5           477.8 
         3114.8           548.8 
         3115.1           613.8 
         3115.4             660 
         3115.7           676.1 
           3116             658 
         3116.3             613 
         3116.6           558.2 
         3116.9           514.2 
         3117.2           497.4 
         3117.5           513.1 
         3117.8           554.7 
         3118.1           607.5 
         3118.4           654.9 
         3118.7             685 
           3119           693.4 
         3119.3           684.4 
         3119.6           667.4 
         3119.9           651.7 
         3120.2           639.5 
         3120.5           625.8 
         3120.8           601.7 
         3121.1           561.6 
         3121.4           510.2 
         3121.7           462.1 
           3122           434.9 
         3122.3           441.2 
         3122.6             480 
         3122.9           537.5 
         3123.2           593.1 
         3123.5             629 
         3123.8           638.7 
         3124.1             628 
         3124.4           610.8 
         3124.7           600.4 
           3125           602.2 
         3125.3           612.9 
         3125.6           625.2 
         3125.9           633.1 
         3126.2           635.1 
         3126.5           632.4 
         3126.8           624.7 
         3127.1             609 
         3127.4           581.8 
         3127.7             543 
           3128           496.4 
         3128.3           449.5 
         3128.6           409.6 
         3128.9             382 
         3129.2           367.9 
         3129.5           366.2 
         3129.8           375.2 
         3130.1           395.2 
         3130.4           429.3 
         3130.7           479.7 
           3131           542.8 
         3131.3           607.5 
         3131.6           657.5 
         3131.9             679 
         3132.2           667.8 
         3132.5           630.1 
         3132.8           579.2 
         3133.1           529.2 
         3133.4           491.6 
         3133.7           473.7 
           3134           477.9 
         3134.3           499.4 
         3134.6           526.9 
         3134.9           546.6 
         3135.2           548.7 
         3135.5             533 
         3135.8           508.8 
         3136.1           488.9 
         3136.4           484.1 
         3136.7             500 
           3137           535.6 
         3137.3           585.1 
         3137.6             638 
         3137.9           681.9 
         3138.2           706.9 
         3138.5           709.7 
         3138.8           695.6 
         3139.1             676 
         3139.4           664.4 
         3139.7           670.5 
           3140           697.6 
         3140.3           740.7 
         3140.6           788.5 
         3140.9           829.6 
         3141.2           857.9 
         3141.5           875.1 
         3141.8           885.6 
         3142.1           889.3 
         3142.4           879.4 
         3142.7             848 
           3143           793.3 
         3143.3           724.2 
         3143.6           654.2 
         3143.9           594.7 
         3144.2           549.6 
         3144.5           515.9 
         3144.8           489.2 
         3145.1           466.6 
         3145.4             448 
         3145.7           435.3 
           3146           431.2 
         3146.3           438.6 
         3146.6           459.9 
         3146.9           495.7 
         3147.2           544.8 
         3147.5           605.7 
         3147.8           677.5 
         3148.1             758 
         3148.4           841.4 
         3148.7           916.9 
           3149           973.1 
         3149.3            1002 
         3149.6            1003 
         3149.9           980.1 
         3150.2           935.8 
         3150.5           873.2 
         3150.8           796.3 
         3151.1           712.3 
         3151.4           630.8 
         3151.7           560.7 
           3152             506 
         3152.3           466.2 
         3152.6           438.5 
         3152.9           419.9 
         3153.2           410.6 
         3153.5           413.7 
         3153.8           433.2 
         3154.1           469.3 
         3154.4           516.2 
         3154.7           562.3 
           3155           596.5 
         3155.3           613.5 
         3155.6           616.3 
         3155.9           613.2 
         3156.2           611.8 
         3156.5           615.5 
         3156.8             624 
         3157.1             635 
         3157.4           647.4 
         3157.7           662.2 
           3158           681.5 
         3158.3           706.5 
         3158.6           735.2 
         3158.9             760 
         3159.2           771.2 
         3159.5           761.2 
         3159.8           730.9 
         3160.1           690.7 
         3160.4           655.4 
         3160.7             637 
           3161           638.5 
         3161.3             656 
         3161.6           685.1 
         3161.9           724.8 
         3162.2           777.7 
         3162.5           843.5 
         3162.8           915.6 
         3163.1           982.7 
         3163.4            1035 
         3163.7            1069 
           3164            1086 
         3164.3            1088 
         3164.6            1074 
         3164.9            1047 
         3165.2            1011 
         3165.5           980.6 
         3165.8           968.9 
         3166.1           988.7 
         3166.4            1044 
         3166.7            1129 
           3167            1224 
         3167.3            1303 
         3167.6            1341 
         3167.9            1327 
         3168.2            1270 
         3168.5            1198 
         3168.8            1140 
         3169.1            1113 
         3169.4            1112 
         3169.7            1116 
           3170            1106 
         3170.3            1074 
         3170.6            1027 
         3170.9           984.9 
         3171.2           961.9 
         3171.5           963.7 
         3171.8           982.7 
         3172.1            1006 
         3172.4            1022 
         3172.7            1033 
           3173            1054 
         3173.3            1097 
         3173.6            1168 
         3173.9            1260 
         3174.2            1355 
         3174.5            1434 
         3174.8            1488 
         3175.1            1514 
         3175.4            1514 
         3175.7            1487 
           3176            1436 
         3176.3            1363 
         3176.6            1280 
         3176.9            1200 
         3177.2            1137 
         3177.5            1097 
         3177.8            1081 
         3178.1            1078 
