# Granada HRES Library
# atmosphere = Phoenix  (atmosphere model used)
# feh = -5  (value for [Fe/H] for the model.)
# logg = 3 log(cm/s2) (value for Log(G) for the model.)
# teff = 4000 K (value for the effective temperature for the model. Temperatures are given in K)
#
# column 1: WAVELENGTH (ANGSTROM), Wavelength in Angstrom
# column 2: FLUX (ERG/CM2/S/A), Flux in erg/cm2/s/A
         3000.2            1866 
         3000.5            1723 
         3000.8            1626 
         3001.1            1568 
         3001.4            1529 
         3001.7            1487 
           3002            1429 
         3002.3            1372 
         3002.6            1352 
         3002.9            1414 
         3003.2            1588 
         3003.5            1880 
         3003.8            2266 
         3004.1            2704 
         3004.4            3142 
         3004.7            3530 
           3005            3830 
         3005.3            4014 
         3005.6            4065 
         3005.9            3979 
         3006.2            3771 
         3006.5            3473 
         3006.8            3136 
         3007.1            2816 
         3007.4            2567 
         3007.7            2423 
           3008            2397 
         3008.3            2482 
         3008.6            2660 
         3008.9            2913 
         3009.2            3227 
         3009.5            3582 
         3009.8            3941 
         3010.1            4237 
         3010.4            4399 
         3010.7            4389 
           3011            4227 
         3011.3            3992 
         3011.6            3786 
         3011.9            3682 
         3012.2            3698 
         3012.5            3795 
         3012.8            3904 
         3013.1            3969 
         3013.4            3968 
         3013.7            3907 
           3014            3815 
         3014.3            3720 
         3014.6            3650 
         3014.9            3615 
         3015.2            3616 
         3015.5            3645 
         3015.8            3686 
         3016.1            3724 
         3016.4            3742 
         3016.7            3720 
           3017            3650 
         3017.3            3534 
         3017.6            3389 
         3017.9            3231 
         3018.2            3061 
         3018.5            2871 
         3018.8            2651 
         3019.1            2396 
         3019.4            2113 
         3019.7            1821 
           3020            1549 
         3020.3            1338 
         3020.6            1228 
         3020.9            1249 
         3021.2            1410 
         3021.5            1688 
         3021.8            2041 
         3022.1            2404 
         3022.4            2715 
         3022.7            2921 
           3023            2993 
         3023.3            2935 
         3023.6            2785 
         3023.9            2600 
         3024.2            2433 
         3024.5            2309 
         3024.8            2226 
         3025.1            2168 
         3025.4            2127 
         3025.7            2120 
           3026            2171 
         3026.3            2291 
         3026.6            2466 
         3026.9            2659 
         3027.2            2833 
         3027.5            2977 
         3027.8            3101 
         3028.1            3237 
         3028.4            3410 
         3028.7            3624 
           3029            3855 
         3029.3            4056 
         3029.6            4184 
         3029.9            4215 
         3030.2            4165 
         3030.5            4084 
         3030.8            4054 
         3031.1            4149 
         3031.4            4407 
         3031.7            4794 
           3032            5206 
         3032.3            5499 
         3032.6            5559 
         3032.9            5352 
         3033.2            4940 
         3033.5            4449 
         3033.8            4022 
         3034.1            3764 
         3034.4            3706 
         3034.7            3809 
           3035            3978 
         3035.3            4108 
         3035.6            4120 
         3035.9            3984 
         3036.2            3718 
         3036.5            3384 
         3036.8            3061 
         3037.1            2826 
         3037.4            2738 
         3037.7            2812 
           3038            3016 
         3038.3            3291 
         3038.6            3573 
         3038.9            3820 
         3039.2            4013 
         3039.5            4143 
         3039.8            4200 
         3040.1            4167 
         3040.4            4041 
         3040.7            3837 
           3041            3600 
         3041.3            3397 
         3041.6            3291 
         3041.9            3331 
         3042.2            3521 
         3042.5            3822 
         3042.8            4164 
         3043.1            4478 
         3043.4            4720 
         3043.7            4876 
           3044            4963 
         3044.3            5009 
         3044.6            5045 
         3044.9            5087 
         3045.2            5129 
         3045.5            5134 
         3045.8            5045 
         3046.1            4817 
         3046.4            4439 
         3046.7            3953 
           3047            3446 
         3047.3            3016 
         3047.6            2743 
         3047.9            2671 
         3048.2            2800 
         3048.5            3091 
         3048.8            3477 
         3049.1            3867 
         3049.4            4167 
         3049.7            4313 
           3050            4293 
         3050.3            4156 
         3050.6            3986 
         3050.9            3859 
         3051.2            3816 
         3051.5            3856 
         3051.8            3942 
         3052.1            4026 
         3052.4            4062 
         3052.7            4015 
           3053            3879 
         3053.3            3676 
         3053.6            3455 
         3053.9            3266 
         3054.2            3151 
         3054.5            3120 
         3054.8            3157 
         3055.1            3225 
         3055.4            3281 
         3055.7            3293 
           3056            3251 
         3056.3            3166 
         3056.6            3060 
         3056.9            2960 
         3057.2            2885 
         3057.5            2837 
         3057.8            2802 
         3058.1            2762 
         3058.4            2713 
         3058.7            2681 
           3059            2718 
         3059.3            2877 
         3059.6            3186 
         3059.9            3626 
         3060.2            4136 
         3060.5            4635 
         3060.8            5046 
         3061.1            5325 
         3061.4            5459 
         3061.7            5455 
           3062            5320 
         3062.3            5047 
         3062.6            4630 
         3062.9            4094 
         3063.2            3504 
         3063.5            2955 
         3063.8            2534 
         3064.1            2287 
         3064.4            2202 
         3064.7            2225 
           3065            2288 
         3065.3            2339 
         3065.6            2363 
         3065.9            2376 
         3066.2            2405 
         3066.5            2471 
         3066.8            2577 
         3067.1            2717 
         3067.4            2886 
         3067.7            3084 
           3068            3312 
         3068.3            3550 
         3068.6            3759 
         3068.9            3887 
         3069.2            3897 
         3069.5            3793 
         3069.8            3632 
         3070.1            3504 
         3070.4            3498 
         3070.7            3662 
           3071            3987 
         3071.3            4420 
         3071.6            4894 
         3071.9            5354 
         3072.2            5760 
         3072.5            6085 
         3072.8            6304 
         3073.1            6405 
         3073.4            6399 
         3073.7            6320 
           3074            6200 
         3074.3            6063 
         3074.6            5927 
         3074.9            5827 
         3075.2            5825 
         3075.5            5987 
         3075.8            6333 
         3076.1            6798 
         3076.4            7249 
         3076.7            7539 
           3077            7585 
         3077.3            7395 
         3077.6            7057 
         3077.9            6687 
         3078.2            6379 
         3078.5            6161 
         3078.8            6002 
         3079.1            5833 
         3079.4            5591 
         3079.7            5248 
           3080            4817 
         3080.3            4336 
         3080.6            3858 
         3080.9            3434 
         3081.2            3109 
         3081.5            2914 
         3081.8            2859 
         3082.1            2919 
         3082.4            3041 
         3082.7            3165 
           3083            3251 
         3083.3            3304 
         3083.6            3360 
         3083.9            3467 
         3084.2            3656 
         3084.5            3928 
         3084.8            4260 
         3085.1            4609 
         3085.4            4916 
         3085.7            5130 
           3086            5241 
         3086.3            5301 
         3086.6            5412 
         3086.9            5680 
         3087.2            6158 
         3087.5            6810 
         3087.8            7500 
         3088.1            8027 
         3088.4            8200 
         3088.7            7917 
           3089            7221 
         3089.3            6281 
         3089.6            5313 
         3089.9            4491 
         3090.2            3888 
         3090.5            3482 
         3090.8            3202 
         3091.1            2976 
         3091.4            2763 
         3091.7            2555 
           3092            2380 
         3092.3            2286 
         3092.6            2326 
         3092.9            2533 
         3093.2            2896 
         3093.5            3358 
         3093.8            3834 
         3094.1            4242 
         3094.4            4524 
         3094.7            4653 
           3095            4628 
         3095.3            4474 
         3095.6            4240 
         3095.9            4013 
         3096.2            3902 
         3096.5            4009 
         3096.8            4383 
         3097.1            4972 
         3097.4            5622 
         3097.7            6119 
           3098            6277 
         3098.3            6022 
         3098.6            5417 
         3098.9            4635 
         3099.2            3881 
         3099.5            3317 
         3099.8            3013 
         3100.1            2947 
         3100.4            3036 
         3100.7            3182 
           3101            3326 
         3101.3            3664 
         3101.6            3993 
         3101.9            4496 
         3102.2            5149 
         3102.5            5871 
         3102.8            6559 
         3103.1            7136 
         3103.4            7571 
         3103.7            7857 
           3104            7982 
         3104.3            7903 
         3104.6            7578 
         3104.9            7006 
         3105.2            6258 
         3105.5            5460 
         3105.8            4749 
         3106.1            4223 
         3106.4            3930 
         3106.7            3866 
           3107            3997 
         3107.3            4261 
         3107.6            4582 
         3107.9            4882 
         3108.2            5101 
         3108.5            5216 
         3108.8            5258 
         3109.1            5297 
         3109.4            5427 
         3109.7            5726 
           3110            6230 
         3110.3            6894 
         3110.6            7593 
         3110.9            8151 
         3111.2            8404 
         3111.5            8275 
         3111.8            7807 
         3112.1            7142 
         3112.4            6465 
         3112.7            5948 
           3113            5722 
         3113.3            5875 
         3113.6            6442 
         3113.9            7401 
         3114.2            8661 
         3114.5           10050 
         3114.8           11340 
         3115.1           12270 
         3115.4           12640 
         3115.7           12360 
           3116           11470 
         3116.3           10210 
         3116.6            8911 
         3116.9            7897 
         3117.2            7373 
         3117.5            7363 
         3117.8            7725 
         3118.1            8230 
         3118.4            8668 
         3118.7            8919 
           3119            8986 
         3119.3            8980 
         3119.6            9052 
         3119.9            9288 
         3120.2            9637 
         3120.5            9907 
         3120.8            9857 
         3121.1            9355 
         3121.4            8469 
         3121.7            7464 
           3122            6674 
         3122.3            6349 
         3122.6            6547 
         3122.9            7132 
         3123.2            7849 
         3123.5            8451 
         3123.8            8796 
         3124.1            8891 
         3124.4            8855 
         3124.7            8843 
           3125            8965 
         3125.3            9251 
         3125.6            9671 
         3125.9           10170 
         3126.2           10670 
         3126.5           11050 
         3126.8           11160 
         3127.1           10840 
         3127.4           10050 
         3127.7            8908 
           3128            7648 
         3128.3            6521 
         3128.6            5692 
         3128.9            5211 
         3129.2            5032 
         3129.5            5077 
         3129.8            5288 
         3130.1            5660 
         3130.4            6223 
         3130.7            6986 
           3131            7881 
         3131.3            8735 
         3131.6            9327 
         3131.9            9482 
         3132.2            9163 
         3132.5            8488 
         3132.8            7671 
         3133.1            6942 
         3133.4            6490 
         3133.7            6431 
           3134            6785 
         3134.3            7440 
         3134.6            8169 
         3134.9            8698 
         3135.2            8839 
         3135.5            8601 
         3135.8            8181 
         3136.1            7887 
         3136.4            8007 
         3136.7            8713 
           3137           10000 
         3137.3           11700 
         3137.6           13480 
         3137.9           14930 
         3138.2           15790 
         3138.5           15910 
         3138.8           15420 
         3139.1           14580 
         3139.4           13700 
         3139.7           13000 
           3140           12610 
         3140.3           12510 
         3140.6           12600 
         3140.9           12690 
         3141.2           12670 
         3141.5           12540 
         3141.8           12350 
         3142.1           12110 
         3142.4           11760 
         3142.7           11190 
           3143           10420 
         3143.3            9536 
         3143.6            8716 
         3143.9            8076 
         3144.2            7633 
         3144.5            7320 
         3144.8            7071 
         3145.1            6843 
         3145.4            6625 
         3145.7            6408 
           3146            6201 
         3146.3            6048 
         3146.6            6056 
         3146.9            6374 
         3147.2            7166 
         3147.5            8547 
         3147.8           10520 
         3148.1           12890 
         3148.4           15250 
         3148.7           17080 
           3149           17920 
         3149.3           17590 
         3149.6           16280 
         3149.9           14450 
         3150.2           12530 
         3150.5           10850 
         3150.8            9536 
         3151.1            8546 
         3151.4            7813 
         3151.7            7277 
           3152            6904 
         3152.3            6665 
         3152.6            6546 
         3152.9            6547 
         3153.2            6720 
         3153.5            7173 
         3153.8            8019 
         3154.1            9275 
         3154.4           10760 
         3154.7           12120 
           3155           12940 
         3155.3           12980 
         3155.6           12310 
         3155.9           11260 
         3156.2           10240 
         3156.5            9560 
         3156.8            9326 
         3157.1            9493 
         3157.4            9936 
         3157.7           10530 
           3158           11240 
         3158.3           12020 
         3158.6           12830 
         3158.9           13550 
         3159.2           13940 
         3159.5           13820 
         3159.8           13130 
         3160.1           12050 
         3160.4           10920 
         3160.7           10180 
           3161           10120 
         3161.3           10980 
         3161.6           12910 
         3161.9           15940 
         3162.2           19870 
         3162.5           24130 
         3162.8           27820 
         3163.1           30010 
         3163.4           30150 
         3163.7           28410 
           3164           25510 
         3164.3           22310 
         3164.6           19500 
         3164.9           17400 
         3165.2           16130 
         3165.5           15690 
         3165.8           16150 
         3166.1           17500 
         3166.4           19640 
         3166.7           22220 
           3167           24710 
         3167.3           26510 
         3167.6           27190 
         3167.9           26700 
         3168.2           25400 
         3168.5           24000 
         3168.8           23160 
         3169.1           23200 
         3169.4           23970 
         3169.7           24990 
           3170           25770 
         3170.3           26080 
         3170.6           26150 
         3170.9           26500 
         3171.2           27640 
         3171.5           29680 
         3171.8           32240 
         3172.1           34520 
         3172.4           35880 
         3172.7           36350 
           3173           36640 
         3173.3           37800 
         3173.6           40430 
         3173.9           44330 
         3174.2           48690 
         3174.5           52700 
         3174.8           55960 
         3175.1           58500 
         3175.4           60280 
         3175.7           60910 
           3176           59790 
         3176.3           56510 
         3176.6           51310 
         3176.9           45060 
         3177.2           39080 
         3177.5           34490 
         3177.8           31800 
         3178.1           30640 
