# Granada HRES Library
# atmosphere = Phoenix  (atmosphere model used)
# feh = 3  (value for [Fe/H] for the model.)
# logg = 0.5 log(cm/s2) (value for Log(G) for the model.)
# teff = 3000 K (value for the effective temperature for the model. Temperatures are given in K)
#
# column 1: WAVELENGTH (ANGSTROM), Wavelength in Angstrom
# column 2: FLUX (ERG/CM2/S/A), Flux in erg/cm2/s/A
         3000.2           2.748 
         3000.5           2.184 
         3000.8           1.808 
         3001.1           1.602 
         3001.4           1.516 
         3001.7           1.495 
           3002           1.506 
         3002.3           1.562 
         3002.6           1.724 
         3002.9           2.075 
         3003.2            2.69 
         3003.5           3.605 
         3003.8           4.785 
         3004.1           6.133 
         3004.4             7.5 
         3004.7            8.72 
           3005           9.639 
         3005.3           10.13 
         3005.6           10.12 
         3005.9           9.612 
         3006.2           8.677 
         3006.5           7.476 
         3006.8           6.199 
         3007.1           5.031 
         3007.4           4.114 
         3007.7           3.548 
           3008           3.389 
         3008.3            3.67 
         3008.6           4.423 
         3008.9            5.68 
         3009.2           7.443 
         3009.5           9.612 
         3009.8           11.93 
         3010.1           14.01 
         3010.4           15.42 
         3010.7           15.94 
           3011           15.61 
         3011.3           14.71 
         3011.6           13.66 
         3011.9           12.81 
         3012.2           12.32 
         3012.5           12.16 
         3012.8            12.2 
         3013.1           12.32 
         3013.4           12.42 
         3013.7           12.48 
           3014           12.45 
         3014.3           12.34 
         3014.6           12.13 
         3014.9           11.85 
         3015.2           11.49 
         3015.5           11.06 
         3015.8           10.54 
         3016.1           9.906 
         3016.4           9.164 
         3016.7           8.337 
           3017           7.474 
         3017.3           6.637 
         3017.6           5.884 
         3017.9           5.234 
         3018.2           4.658 
         3018.5           4.098 
         3018.8           3.511 
         3019.1           2.893 
         3019.4           2.278 
         3019.7           1.719 
           3020           1.266 
         3020.3          0.9575 
         3020.6          0.8211 
         3020.9           0.876 
         3021.2           1.129 
         3021.5            1.57 
         3021.8           2.154 
         3022.1           2.813 
         3022.4           3.442 
         3022.7           3.938 
           3023           4.213 
         3023.3           4.242 
         3023.6           4.064 
         3023.9           3.771 
         3024.2            3.46 
         3024.5           3.197 
         3024.8           3.008 
         3025.1           2.896 
         3025.4           2.885 
         3025.7           3.014 
           3026           3.318 
         3026.3           3.778 
         3026.6           4.321 
         3026.9           4.848 
         3027.2           5.304 
         3027.5           5.722 
         3027.8           6.235 
         3028.1           7.003 
         3028.4           8.127 
         3028.7            9.57 
           3029           11.14 
         3029.3           12.52 
         3029.6           13.48 
         3029.9           13.91 
         3030.2           13.92 
         3030.5           13.86 
         3030.8           14.15 
         3031.1           15.12 
         3031.4           16.84 
         3031.7           19.01 
           3032           21.02 
         3032.3           22.16 
         3032.6           21.94 
         3032.9           20.33 
         3033.2           17.77 
         3033.5           14.99 
         3033.8           12.67 
         3034.1           11.22 
         3034.4           10.74 
         3034.7           10.94 
           3035           11.38 
         3035.3            11.6 
         3035.6           11.32 
         3035.9           10.44 
         3036.2            9.11 
         3036.5           7.591 
         3036.8           6.195 
         3037.1           5.213 
         3037.4           4.853 
         3037.7           5.197 
           3038           6.185 
         3038.3           7.657 
         3038.6           9.411 
         3038.9           11.25 
         3039.2              13 
         3039.5           14.48 
         3039.8           15.49 
         3040.1           15.88 
         3040.4           15.59 
         3040.7           14.79 
           3041            13.8 
         3041.3           13.05 
         3041.6           12.89 
         3041.9           13.44 
         3042.2           14.53 
         3042.5           15.74 
         3042.8           16.61 
         3043.1           16.82 
         3043.4           16.35 
         3043.7           15.44 
           3044           14.43 
         3044.3           13.63 
         3044.6           13.15 
         3044.9           12.96 
         3045.2           12.88 
         3045.5           12.68 
         3045.8           12.16 
         3046.1           11.19 
         3046.4            9.78 
         3046.7           8.105 
           3047           6.427 
         3047.3           5.041 
         3047.6           4.185 
         3047.9           3.996 
         3048.2           4.491 
         3048.5           5.557 
         3048.8           6.956 
         3049.1           8.344 
         3049.4           9.362 
         3049.7           9.762 
           3050           9.518 
         3050.3           8.843 
         3050.6           8.091 
         3050.9           7.604 
         3051.2           7.577 
         3051.5           8.012 
         3051.8           8.744 
         3052.1           9.511 
         3052.4           10.04 
         3052.7           10.13 
           3053           9.738 
         3053.3           8.991 
         3053.6           8.138 
         3053.9           7.451 
         3054.2           7.117 
         3054.5           7.177 
         3054.8           7.522 
         3055.1           7.947 
         3055.4           8.243 
         3055.7           8.273 
           3056           8.015 
         3056.3           7.535 
         3056.6           6.942 
         3056.9           6.334 
         3057.2           5.769 
         3057.5           5.265 
         3057.8           4.815 
         3058.1           4.414 
         3058.4           4.099 
         3058.7           3.961 
           3059           4.128 
         3059.3           4.717 
         3059.6            5.78 
         3059.9           7.273 
         3060.2            9.07 
         3060.5              11 
         3060.8           12.87 
         3061.1           14.55 
         3061.4           15.89 
         3061.7           16.77 
           3062           17.02 
         3062.3           16.48 
         3062.6           15.09 
         3062.9           12.99 
         3063.2           10.54 
         3063.5           8.197 
         3063.8           6.359 
         3064.1           5.213 
         3064.4           4.716 
         3064.7           4.677 
           3065           4.896 
         3065.3           5.272 
         3065.6           5.825 
         3065.9           6.622 
         3066.2           7.672 
         3066.5           8.854 
         3066.8           9.938 
         3067.1            10.7 
         3067.4           11.02 
         3067.7           10.98 
           3068           10.72 
         3068.3           10.38 
         3068.6           9.996 
         3068.9           9.504 
         3069.2           8.846 
         3069.5           8.062 
         3069.8            7.34 
         3070.1           6.959 
         3070.4           7.165 
         3070.7           8.044 
           3071           9.477 
         3071.3            11.2 
         3071.6           12.94 
         3071.9           14.56 
         3072.2           16.08 
         3072.5           17.66 
         3072.8           19.43 
         3073.1            21.4 
         3073.4           23.39 
         3073.7           25.04 
           3074           25.96 
         3074.3           25.91 
         3074.6           25.06 
         3074.9           23.93 
         3075.2           23.23 
         3075.5           23.52 
         3075.8            24.9 
         3076.1           26.94 
         3076.4           28.86 
         3076.7           29.94 
           3077           29.79 
         3077.3           28.52 
         3077.6           26.56 
         3077.9           24.42 
         3078.2           22.47 
         3078.5           20.85 
         3078.8           19.42 
         3079.1           17.96 
         3079.4           16.24 
         3079.7            14.2 
           3080           11.95 
         3080.3           9.679 
         3080.6           7.591 
         3080.9           5.832 
         3081.2           4.479 
         3081.5           3.555 
         3081.8           3.047 
         3082.1           2.905 
         3082.4           3.046 
         3082.7           3.377 
           3083           3.834 
         3083.3           4.416 
         3083.6           5.171 
         3083.9           6.161 
         3084.2           7.426 
         3084.5           8.974 
         3084.8           10.77 
         3085.1           12.71 
         3085.4           14.64 
         3085.7           16.39 
           3086           17.88 
         3086.3           19.28 
         3086.6           20.91 
         3086.9           23.13 
         3087.2           26.08 
         3087.5           29.54 
         3087.8            32.9 
         3088.1           35.32 
         3088.4           36.02 
         3088.7           34.56 
           3089           31.03 
         3089.3           26.02 
         3089.6           20.38 
         3089.9           14.97 
         3090.2           10.43 
         3090.5           7.036 
         3090.8           4.767 
         3091.1           3.398 
         3091.4           2.637 
         3091.7           2.241 
           3092           2.073 
         3092.3           2.109 
         3092.6           2.409 
         3092.9           3.055 
         3093.2           4.103 
         3093.5           5.539 
         3093.8           7.271 
         3094.1           9.139 
         3094.4           10.93 
         3094.7            12.4 
           3095           13.32 
         3095.3           13.61 
         3095.6           13.45 
         3095.9           13.37 
         3096.2           14.16 
         3096.5           16.58 
         3096.8           20.95 
         3097.1           26.78 
         3097.4           32.77 
         3097.7           37.21 
           3098           38.62 
         3098.3           36.47 
         3098.6           31.37 
         3098.9           24.78 
         3099.2           18.35 
         3099.5           13.29 
         3099.8           10.09 
         3100.1           8.538 
         3100.4           8.068 
         3100.7            8.11 
           3101           8.386 
         3101.3           10.41 
         3101.6           13.09 
         3101.9           17.29 
         3102.2           22.84 
         3102.5           29.12 
         3102.8           35.33 
         3103.1           40.76 
         3103.4           45.04 
         3103.7           48.06 
           3104            49.7 
         3104.3           49.66 
         3104.6           47.59 
         3104.9           43.45 
         3105.2           37.75 
         3105.5            31.5 
         3105.8           25.73 
         3106.1           21.22 
         3106.4           18.34 
         3106.7           17.13 
           3107           17.42 
         3107.3            18.8 
         3107.6           20.64 
         3107.9           22.26 
         3108.2           23.13 
         3108.5           23.13 
         3108.8            22.6 
         3109.1           22.25 
         3109.4            22.9 
         3109.7           25.18 
           3110           29.31 
         3110.3           34.81 
         3110.6           40.56 
         3110.9           45.02 
         3111.2            46.8 
         3111.5           45.25 
         3111.8           40.72 
         3112.1           34.44 
         3112.4           27.91 
         3112.7           22.41 
           3113           18.72 
         3113.3           17.15 
         3113.6           17.79 
         3113.9           20.65 
         3114.2           25.64 
         3114.5           32.47 
         3114.8           40.32 
         3115.1            47.8 
         3115.4           53.16 
         3115.7           54.99 
           3116           52.76 
         3116.3           47.42 
         3116.6           41.11 
         3116.9           36.47 
         3117.2           35.54 
         3117.5           39.15 
         3117.8           46.66 
         3118.1           56.26 
         3118.4           65.62 
         3118.7           72.64 
           3119           76.09 
         3119.3           75.98 
         3119.6           73.34 
         3119.9           69.52 
         3120.2           65.33 
         3120.5           60.72 
         3120.8           55.12 
         3121.1            48.2 
         3121.4            40.6 
         3121.7           33.87 
           3122           29.79 
         3122.3           29.45 
         3122.6           32.56 
         3122.9           37.54 
         3123.2           42.25 
         3123.5           44.95 
         3123.8           45.15 
         3124.1           43.66 
         3124.4           42.06 
         3124.7           41.69 
           3125           42.88 
         3125.3           44.78 
         3125.6              46 
         3125.9           45.44 
         3126.2              43 
         3126.5           39.33 
         3126.8           35.35 
         3127.1            31.6 
         3127.4           28.25 
         3127.7           25.19 
           3128            22.4 
         3128.3           19.98 
         3128.6           18.21 
         3128.9            17.3 
         3129.2           17.44 
         3129.5            18.7 
         3129.8           21.07 
         3130.1           24.63 
         3130.4           29.42 
         3130.7           35.31 
           3131           41.63 
         3131.3            47.2 
         3131.6           50.59 
         3131.9           50.79 
         3132.2           47.83 
         3132.5           42.76 
         3132.8           37.13 
         3133.1           32.34 
         3133.4           29.36 
         3133.7           28.63 
           3134           30.13 
         3134.3           33.22 
         3134.6           36.67 
         3134.9           39.09 
         3135.2           39.52 
         3135.5           37.95 
         3135.8           35.38 
         3136.1           33.32 
         3136.4           33.19 
         3136.7            35.8 
           3137           41.14 
         3137.3           48.27 
         3137.6           55.55 
         3137.9           61.18 
         3138.2           63.92 
         3138.5           63.72 
         3138.8           61.75 
         3139.1           59.83 
         3139.4           59.73 
         3139.7           62.53 
           3140           68.24 
         3140.3           75.82 
         3140.6           83.54 
         3140.9           89.72 
         3141.2           93.51 
         3141.5           95.15 
         3141.8           95.37 
         3142.1           94.42 
         3142.4           91.73 
         3142.7           86.54 
           3143           78.94 
         3143.3           70.08 
         3143.6           61.58 
         3143.9           54.58 
         3144.2           49.15 
         3144.5           44.69 
         3144.8           40.57 
         3145.1           36.57 
         3145.4           32.95 
         3145.7            30.2 
           3146           28.84 
         3146.3           29.43 
         3146.6           32.43 
         3146.9           38.21 
         3147.2           46.92 
         3147.5           58.39 
         3147.8           71.86 
         3148.1           85.77 
         3148.4           97.87 
         3148.7           105.8 
           3149           108.2 
         3149.3           105.3 
         3149.6            98.6 
         3149.9           90.09 
         3150.2           80.99 
         3150.5           71.64 
         3150.8           62.02 
         3151.1           52.45 
         3151.4           43.74 
         3151.7           36.93 
           3152           32.71 
         3152.3           31.12 
         3152.6           31.52 
         3152.9              33 
         3153.2           34.84 
         3153.5           36.81 
         3153.8           39.17 
         3154.1           42.22 
         3154.4           45.75 
         3154.7            48.9 
           3155           50.56 
         3155.3           50.15 
         3155.6           48.02 
         3155.9           45.27 
         3156.2           43.22 
         3156.5            42.7 
         3156.8            43.8 
         3157.1           45.98 
         3157.4            48.5 
         3157.7           50.77 
           3158           52.63 
         3158.3           54.19 
         3158.6           55.58 
         3158.9           56.59 
         3159.2           56.88 
         3159.5           56.35 
         3159.8           55.58 
         3160.1           55.92 
         3160.4           58.66 
         3160.7           64.13 
           3161           71.18 
         3161.3           77.83 
         3161.6           82.51 
         3161.9           85.12 
         3162.2           86.88 
         3162.5           89.33 
         3162.8            93.2 
         3163.1           98.15 
         3163.4           103.3 
         3163.7           107.8 
           3164           111.1 
         3164.3           112.4 
         3164.6           111.3 
         3164.9           107.7 
         3165.2           102.8 
         3165.5           98.69 
         3165.8           97.66 
         3166.1           101.9 
         3166.4           112.4 
         3166.7           128.5 
           3167           147.5 
         3167.3           164.6 
         3167.6           175.1 
         3167.9             176 
         3168.2           167.5 
         3168.5           153.5 
         3168.8           139.2 
         3169.1           128.3 
         3169.4           121.6 
         3169.7           117.4 
           3170           113.1 
         3170.3           107.3 
         3170.6           100.7 
         3170.9           95.17 
         3171.2            92.3 
         3171.5           92.49 
         3171.8           94.48 
         3172.1           96.18 
         3172.4           95.97 
         3172.7           93.67 
           3173           90.74 
         3173.3           89.44 
         3173.6           91.74 
         3173.9           98.37 
         3174.2           108.6 
         3174.5           120.5 
         3174.8           132.1 
         3175.1           141.1 
         3175.4           145.9 
         3175.7           145.5 
           3176           139.8 
         3176.3           129.9 
         3176.6           117.8 
         3176.9           106.4 
         3177.2           98.39 
         3177.5           95.37 
         3177.8            97.7 
         3178.1           103.7 
