# Granada HRES Library
# atmosphere = Spectrum  (atmosphere model used)
# feh = 3  (value for [Fe/H] for the model.)
# logg = 2.5 log(cm/s2) (value for Log(G) for the model.)
# teff = 5000 K (value for the effective temperature for the model. Temperatures are given in K)
#
# column 1: WAVELENGTH (ANGSTROM), Wavelength in Angstrom
# column 2: FLUX (ERG/CM2/S/A), Flux in erg/cm2/s/A
         3000.2           25940 
         3000.5           26970 
         3000.8           28520 
         3001.1           30810 
         3001.4           33970 
         3001.7           38590 
           3002           45380 
         3002.3           55520 
         3002.6           70400 
         3002.9           91590 
         3003.2          120300 
         3003.5          156900 
         3003.8          200500 
         3004.1          248700 
         3004.4          297400 
         3004.7          341400 
           3005          375500 
         3005.3          394900 
         3005.6          396700 
         3005.9          380400 
         3006.2          348400 
         3006.5          304900 
         3006.8          256000 
         3007.1          207700 
         3007.4          165600 
         3007.7          133800 
           3008          114800 
         3008.3          109500 
         3008.6          118000 
         3008.9          139000 
         3009.2          170500 
         3009.5          209100 
         3009.8          250100 
         3010.1          288800 
         3010.4          320100 
         3010.7          341300 
           3011          351200 
         3011.3          352100 
         3011.6          347500 
         3011.9          341900 
         3012.2          338400 
         3012.5          338400 
         3012.8          341200 
         3013.1          344900 
         3013.4          347100 
         3013.7          346000 
           3014          340500 
         3014.3          330700 
         3014.6          317000 
         3014.9          300300 
         3015.2          281500 
         3015.5          261300 
         3015.8          240200 
         3016.1          218400 
         3016.4          196000 
         3016.7          173200 
           3017          150400 
         3017.3          128200 
         3017.6          107300 
         3017.9           88300 
         3018.2           71700 
         3018.5           57520 
         3018.8           45860 
         3019.1           36350 
         3019.4           28840 
         3019.7           23130 
           3020           19180 
         3020.3           17050 
         3020.6           16840 
         3020.9           18770 
         3021.2           22850 
         3021.5           28980 
         3021.8           36870 
         3022.1           45990 
         3022.4           55680 
         3022.7           65180 
           3023           73770 
         3023.3           80940 
         3023.6           86350 
         3023.9           89920 
         3024.2           91970 
         3024.5           93490 
         3024.8           96100 
         3025.1          101900 
         3025.4          113600 
         3025.7          134200 
           3026          165800 
         3026.3          209300 
         3026.6          263900 
         3026.9          326400 
         3027.2          391900 
         3027.5          454400 
         3027.8          507600 
         3028.1          546100 
         3028.4          566200 
         3028.7          567400 
           3029          551600 
         3029.3          523100 
         3029.6          488000 
         3029.9          452300 
         3030.2          421800 
         3030.5          401400 
         3030.8          394800 
         3031.1          404500 
         3031.4          431500 
         3031.7          473900 
           3032          527500 
         3032.3          586200 
         3032.6          643100 
         3032.9          692500 
         3033.2          730400 
         3033.5          755000 
         3033.8          766100 
         3034.1          764700 
         3034.4          751200 
         3034.7          725400 
           3035          686700 
         3035.3          634600 
         3035.6          569900 
         3035.9          495500 
         3036.2          416700 
         3036.5          339700 
         3036.8          271700 
         3037.1          218700 
         3037.4          184600 
         3037.7          170400 
           3038          175000 
         3038.3          194600 
         3038.6          224100 
         3038.9          257400 
         3039.2          288900 
         3039.5          314200 
         3039.8          330200 
         3040.1          335800 
         3040.4          332100 
         3040.7          321600 
           3041          307700 
         3041.3          294400 
         3041.6          286100 
         3041.9          285800 
         3042.2          295500 
         3042.5          315200 
         3042.8          342300 
         3043.1          373000 
         3043.4          402500 
         3043.7          426400 
           3044          441400 
         3044.3          445700 
         3044.6          438900 
         3044.9          421500 
         3045.2          395000 
         3045.5          361200 
         3045.8          322300 
         3046.1          280800 
         3046.4          239700 
         3046.7          202500 
           3047          172700 
         3047.3          153600 
         3047.6          147400 
         3047.9          154600 
         3048.2          173500 
         3048.5          200600 
         3048.8          231600 
         3049.1          262000 
         3049.4          288800 
         3049.7          312300 
           3050          335200 
         3050.3          362400 
         3050.6          398700 
         3050.9          446300 
         3051.2          503300 
         3051.5          562800 
         3051.8          615000 
         3052.1          649600 
         3052.4          658800 
         3052.7          640300 
           3053          597900 
         3053.3          540200 
         3053.6          478600 
         3053.9          423800 
         3054.2          383200 
         3054.5          359300 
         3054.8          349900 
         3055.1          348900 
         3055.4          348900 
         3055.7          343200 
           3056          327300 
         3056.3          300200 
         3056.6          263500 
         3056.9          221800 
         3057.2          179900 
         3057.5          142500 
         3057.8          113100 
         3058.1           94210 
         3058.4           86990 
         3058.7           92730 
           3059          111900 
         3059.3          145100 
         3059.6          192000 
         3059.9          251200 
         3060.2          319600 
         3060.5          392400 
         3060.8          463300 
         3061.1          525900 
         3061.4          574100 
         3061.7          603300 
           3062          611300 
         3062.3          598100 
         3062.6          566600 
         3062.9          522100 
         3063.2          471300 
         3063.5          421700 
         3063.8          379200 
         3064.1          347700 
         3064.4          327900 
         3064.7          317300 
           3065          311200 
         3065.3          304900 
         3065.6          294600 
         3065.9          279500 
         3066.2          262000 
         3066.5          247400 
         3066.8          242300 
         3067.1          253800 
         3067.4          285700 
         3067.7          339600 
           3068          412300 
         3068.3          497400 
         3068.6          586300 
         3068.9          669400 
         3069.2          738500 
         3069.5          788600 
         3069.8          818300 
         3070.1          828900 
         3070.4          824000 
         3070.7          807500 
           3071          782600 
         3071.3          752100 
         3071.6          718800 
         3071.9          685700 
         3072.2          656500 
         3072.5          633600 
         3072.8          618300 
         3073.1          608700 
         3073.4          601300 
         3073.7          592100 
           3074          578000 
         3074.3          558900 
         3074.6          537700 
         3074.9          519900 
         3075.2          512400 
         3075.5          519700 
         3075.8          543500 
         3076.1          580400 
         3076.4          623700 
         3076.7          664300 
           3077          694600 
         3077.3          710200 
         3077.6          710700 
         3077.9          700100 
         3078.2          684500 
         3078.5          669800 
         3078.8          660000 
         3079.1          656300 
         3079.4          656000 
         3079.7          655100 
           3080          648900 
         3080.3          634200 
         3080.6          610000 
         3080.9          577500 
         3081.2          540600 
         3081.5          503400 
         3081.8          472000 
         3082.1          450600 
         3082.4          443100 
         3082.7          452500 
           3083          481100 
         3083.3          530300 
         3083.6          600300 
         3083.9          688700 
         3084.2          790100 
         3084.5          895800 
         3084.8          994800 
         3085.1        1.074e+6 
         3085.4        1.124e+6 
         3085.7        1.135e+6 
           3086        1.106e+6 
         3086.3        1.041e+6 
         3086.6          951300 
         3086.9          850300 
         3087.2          752600 
         3087.5          669600 
         3087.8          607800 
         3088.1          568000 
         3088.4          545400 
         3088.7          532600 
           3089          522000 
         3089.3          508000 
         3089.6          487900 
         3089.9          462700 
         3090.2          434900 
         3090.5          407400 
         3090.8          382600 
         3091.1          361500 
         3091.4          343800 
         3091.7          329300 
           3092          317300 
         3092.3          308500 
         3092.6          304800 
         3092.9          308500 
         3093.2          321600 
         3093.5          344300 
         3093.8          374100 
         3094.1          406500 
         3094.4          435300 
         3094.7          454900 
           3095          462000 
         3095.3          456000 
         3095.6          439900 
         3095.9          418800 
         3096.2          398500 
         3096.5          383800 
         3096.8          376700 
         3097.1          375800 
         3097.4          376900 
         3097.7          374300 
           3098          363000 
         3098.3          339900 
         3098.6          305500 
         3098.9          263100 
         3099.2          217600 
         3099.5          174400 
         3099.8          138500 
         3100.1          113000 
         3100.4          100500 
         3100.7          102300 
           3101          119300 
         3101.3          151800 
         3101.6          199300 
         3101.9          259700 
         3102.2          329100 
         3102.5          402100 
         3102.8          472200 
         3103.1          533500 
         3103.4          581700 
         3103.7          614000 
           3104          631000 
         3104.3          636000 
         3104.6          633700 
         3104.9          630200 
         3105.2          631800 
         3105.5          643600 
         3105.8          668700 
         3106.1          707100 
         3106.4          756200 
         3106.7          811800 
           3107          868500 
         3107.3          921600 
         3107.6          967000 
         3107.9        1.002e+6 
         3108.2        1.023e+6 
         3108.5         1.03e+6 
         3108.8        1.023e+6 
         3109.1        1.004e+6 
         3109.4          979200 
         3109.7          955200 
           3110          939800 
         3110.3          939000 
         3110.6          955200 
         3110.9          985300 
         3111.2        1.022e+6 
         3111.5        1.055e+6 
         3111.8        1.075e+6 
         3112.1        1.072e+6 
         3112.4        1.046e+6 
         3112.7          999200 
           3113          938800 
         3113.3          876000 
         3113.6          821400 
         3113.9          782600 
         3114.2          763500 
         3114.5          762000 
         3114.8          772500 
         3115.1          786300 
         3115.4          795600 
         3115.7          794100 
           3116          778900 
         3116.3          750200 
         3116.6          711100 
         3116.9          666300 
         3117.2          620000 
         3117.5          576100 
         3117.8          537700 
         3118.1          506500 
         3118.4          483400 
         3118.7          469000 
           3119          463800 
         3119.3          468000 
         3119.6          481600 
         3119.9          503500 
         3120.2          530400 
         3120.5          557600 
         3120.8          578900 
         3121.1          588900 
         3121.4          585800 
         3121.7          571300 
           3122          550800 
         3122.3          532100 
         3122.6          522100 
         3122.9          525100 
         3123.2          541800 
         3123.5          568000 
         3123.8          597100 
         3124.1          622000 
         3124.4          638200 
         3124.7          645200 
           3125          646500 
         3125.3          648900 
         3125.6          658800 
         3125.9          680400 
         3126.2          713300 
         3126.5          752600 
         3126.8          790800 
         3127.1          820400 
         3127.4          835400 
         3127.7          833600 
           3128          816700 
         3128.3          789100 
         3128.6          757100 
         3128.9          725600 
         3129.2          697900 
         3129.5          674500 
         3129.8          654900 
         3130.1          638000 
         3130.4          622600 
         3130.7          608000 
           3131          593300 
         3131.3          577500 
         3131.6          559500 
         3131.9          538200 
         3132.2          513200 
         3132.5          486300 
         3132.8          459900 
         3133.1          438300 
         3133.4          426300 
         3133.7          428200 
           3134          446700 
         3134.3          481400 
         3134.6          528400 
         3134.9          580900 
         3135.2          631400 
         3135.5          672900 
         3135.8          701700 
         3136.1          717300 
         3136.4          722000 
         3136.7          719600 
           3137          713500 
         3137.3          706800 
         3137.6          701100 
         3137.9          698100 
         3138.2          699300 
         3138.5          706100 
         3138.8          720000 
         3139.1          741600 
         3139.4          771100 
         3139.7          807200 
           3140          847600 
         3140.3          888400 
         3140.6          924200 
         3140.9          948700 
         3141.2          955800 
         3141.5          941700 
         3141.8          904800 
         3142.1          846600 
         3142.4          771200 
         3142.7          684100 
           3143          592500 
         3143.3          503600 
         3143.6          424000 
         3143.9          359900 
         3144.2          314700 
         3144.5          289900 
         3144.8          284600 
         3145.1          295100 
         3145.4          316700 
         3145.7          343900 
           3146          372500 
         3146.3          401000 
         3146.6          430300 
         3146.9          463900 
         3147.2          505000 
         3147.5          556000 
         3147.8          617400 
         3148.1          685500 
         3148.4          755200 
         3148.7          820700 
           3149          876900 
         3149.3          921400 
         3149.6          954200 
         3149.9          976600 
         3150.2          990400 
         3150.5          996500 
         3150.8          994900 
         3151.1          986500 
         3151.4          972100 
         3151.7          954300 
           3152          936600 
         3152.3          922200 
         3152.6          912300 
         3152.9          906700 
         3153.2          902500 
         3153.5          897100 
         3153.8          887500 
         3154.1          872800 
         3154.4          853400 
         3154.7          830400 
           3155          804500 
         3155.3          775300 
         3155.6          741000 
         3155.9          700400 
         3156.2          652400 
         3156.5          597600 
         3156.8          538800 
         3157.1          480200 
         3157.4          426600 
         3157.7          381700 
           3158          348400 
         3158.3          327400 
         3158.6          316900 
         3158.9          314000 
         3159.2          315600 
         3159.5          317900 
         3159.8          318800 
         3160.1          316800 
         3160.4          313400 
         3160.7          310900 
           3161          313100 
         3161.3          322900 
         3161.6          342600 
         3161.9          372700 
         3162.2          410700 
         3162.5          452400 
         3162.8          492600 
         3163.1          526200 
         3163.4          549100 
         3163.7          560200 
           3164          561300 
         3164.3          556800 
         3164.6          552400 
         3164.9          553400 
         3165.2          563500 
         3165.5          583500 
         3165.8          611700 
         3166.1          643300 
         3166.4          672600 
         3166.7          693500 
           3167          701200 
         3167.3          694700 
         3167.6          675800 
         3167.9          650800 
         3168.2          628000 
         3168.5          616300 
         3168.8          622600 
         3169.1          649700 
         3169.4          695500 
         3169.7          754500 
           3170          819200 
         3170.3          882000 
         3170.6          937900 
         3170.9          985200 
         3171.2        1.025e+6 
         3171.5        1.058e+6 
         3171.8        1.086e+6 
         3172.1        1.108e+6 
         3172.4        1.122e+6 
         3172.7        1.124e+6 
           3173        1.114e+6 
         3173.3        1.093e+6 
         3173.6        1.065e+6 
         3173.9        1.036e+6 
         3174.2        1.014e+6 
         3174.5        1.005e+6 
         3174.8        1.015e+6 
         3175.1        1.045e+6 
         3175.4         1.09e+6 
         3175.7        1.141e+6 
           3176        1.187e+6 
         3176.3        1.214e+6 
         3176.6        1.214e+6 
         3176.9        1.182e+6 
         3177.2        1.119e+6 
         3177.5        1.034e+6 
         3177.8          935800 
         3178.1          834900 
