# Granada HRES Library
# atmosphere = Phoenix  (atmosphere model used)
# feh = -5  (value for [Fe/H] for the model.)
# logg = 3 log(cm/s2) (value for Log(G) for the model.)
# teff = 4500 K (value for the effective temperature for the model. Temperatures are given in K)
#
# column 1: WAVELENGTH (ANGSTROM), Wavelength in Angstrom
# column 2: FLUX (ERG/CM2/S/A), Flux in erg/cm2/s/A
         3000.2           14210 
         3000.5           13260 
         3000.8           12550 
         3001.1           12110 
         3001.4           11830 
         3001.7           11590 
           3002           11350 
         3002.3           11280 
         3002.6           11800 
         3002.9           13400 
         3003.2           16390 
         3003.5           20820 
         3003.8           26400 
         3004.1           32600 
         3004.4           38750 
         3004.7           44240 
           3005           48520 
         3005.3           51120 
         3005.6           51630 
         3005.9           49820 
         3006.2           45840 
         3006.5           40240 
         3006.8           33900 
         3007.1           27850 
         3007.4           22960 
         3007.7           19750 
           3008           18370 
         3008.3           18710 
         3008.6           20500 
         3008.9           23450 
         3009.2           27350 
         3009.5           31850 
         3009.8           36430 
         3010.1           40310 
         3010.4           42740 
         3010.7           43360 
           3011           42490 
         3011.3           41110 
         3011.6           40430 
         3011.9           41300 
         3012.2           43770 
         3012.5           47040 
         3012.8           49930 
         3013.1           51410 
         3013.4           51090 
         3013.7           49260 
           3014           46540 
         3014.3           43650 
         3014.6           41020 
         3014.9           38870 
         3015.2           37190 
         3015.5           35950 
         3015.8           35050 
         3016.1           34370 
         3016.4           33710 
         3016.7           32770 
           3017           31370 
         3017.3           29510 
         3017.6           27390 
         3017.9           25190 
         3018.2           23010 
         3018.5           20830 
         3018.8           18570 
         3019.1           16190 
         3019.4           13770 
         3019.7           11450 
           3020            9415 
         3020.3            7923 
         3020.6            7240 
         3020.9            7573 
         3021.2            8995 
         3021.5           11380 
         3021.8           14430 
         3022.1           17670 
         3022.4           20540 
         3022.7           22580 
           3023           23520 
         3023.3           23400 
         3023.6           22540 
         3023.9           21430 
         3024.2           20470 
         3024.5           19750 
         3024.8           19190 
         3025.1           18710 
         3025.4           18460 
         3025.7           18880 
           3026           20560 
         3026.3           23920 
         3026.6           29120 
         3026.9           35980 
         3027.2           44200 
         3027.5           53380 
         3027.8           62910 
         3028.1           71770 
         3028.4           78640 
         3028.7           82160 
           3029           81490 
         3029.3           76660 
         3029.6           68680 
         3029.9           59190 
         3030.2           50210 
         3030.5           43720 
         3030.8           41530 
         3031.1           44860 
         3031.4           53960 
         3031.7           67590 
           3032           83040 
         3032.3           96680 
         3032.6          105200 
         3032.9          106900 
         3033.2          102100 
         3033.5           93080 
         3033.8           82920 
         3034.1           74210 
         3034.4           68290 
         3034.7           64890 
           3035           62580 
         3035.3           59690 
         3035.6           55150 
         3035.9           48820 
         3036.2           41370 
         3036.5           33810 
         3036.8           27210 
         3037.1           22350 
         3037.4           19610 
         3037.7           19040 
           3038           20350 
         3038.3           23100 
         3038.6           26830 
         3038.9           31040 
         3039.2           35220 
         3039.5           38750 
         3039.8           41010 
         3040.1           41620 
         3040.4           40570 
         3040.7           38170 
           3041           35010 
         3041.3           31780 
         3041.6           29280 
         3041.9           28260 
         3042.2           29280 
         3042.5           32570 
         3042.8           38030 
         3043.1           45270 
         3043.4           53650 
         3043.7           62200 
           3044           69660 
         3044.3           74710 
         3044.6           76400 
         3044.9           74590 
         3045.2           69940 
         3045.5           63490 
         3045.8           56130 
         3046.1           48420 
         3046.4           40740 
         3046.7           33500 
           3047           27320 
         3047.3           22870 
         3047.6           20690 
         3047.9           20990 
         3048.2           23580 
         3048.5           27850 
         3048.8           32850 
         3049.1           37410 
         3049.4           40500 
         3049.7           41580 
           3050           40960 
         3050.3           39820 
         3050.6           39710 
         3050.9           42000 
         3051.2           47220 
         3051.5           54790 
         3051.8           63060 
         3052.1           69810 
         3052.4           72970 
         3052.7           71430 
           3053           65520 
         3053.3           56890 
         3053.6           47830 
         3053.9           40400 
         3054.2           35950 
         3054.5           34840 
         3054.8           36660 
         3055.1           40310 
         3055.4           44300 
         3055.7           47060 
           3056           47460 
         3056.3           45140 
         3056.6           40620 
         3056.9           35000 
         3057.2           29430 
         3057.5           24750 
         3057.8           21290 
         3058.1           18960 
         3058.4           17640 
         3058.7           17350 
           3059           18450 
         3059.3           21410 
         3059.6           26640 
         3059.9           34190 
         3060.2           43760 
         3060.5           54720 
         3060.8           66380 
         3061.1           78080 
         3061.4           89290 
         3061.7           99320 
           3062          107000 
         3062.3          110600 
         3062.6          108400 
         3062.9           99990 
         3063.2           86620 
         3063.5           71090 
         3063.8           56990 
         3064.1           47220 
         3064.4           42990 
         3064.7           43660 
           3065           47080 
         3065.3           50530 
         3065.6           51750 
         3065.9           49770 
         3066.2           45170 
         3066.5           39670 
         3066.8           35360 
         3067.1           34020 
         3067.4           36740 
         3067.7           43860 
           3068           54760 
         3068.3           67790 
         3068.6           80410 
         3068.9           89870 
         3069.2           94350 
         3069.5           94080 
         3069.8           91490 
         3070.1           90130 
         3070.4           92900 
         3070.7          100500 
           3071          110900 
         3071.3          120800 
         3071.6          127300 
         3071.9          129100 
         3072.2          127000 
         3072.5          122800 
         3072.8          117800 
         3073.1          112700 
         3073.4          107700 
         3073.7          102800 
           3074           98250 
         3074.3           94160 
         3074.6           90980 
         3074.9           89720 
         3075.2           92160 
         3075.5          100100 
         3075.8          114000 
         3076.1          131700 
         3076.4          148600 
         3076.7          159400 
           3077          160900 
         3077.3          152900 
         3077.6          138900 
         3077.9          124200 
         3078.2          113500 
         3078.5          109200 
         3078.8          110800 
         3079.1          115400 
         3079.4          119100 
         3079.7          118500 
           3080          112100 
         3080.3          100100 
         3080.6           84600 
         3080.9           68610 
         3081.2           55080 
         3081.5           46000 
         3081.8           42040 
         3082.1           42600 
         3082.4           46370 
         3082.7           52130 
           3083           59350 
         3083.3           68290 
         3083.6           79380 
         3083.9           92410 
         3084.2          106100 
         3084.5          118600 
         3084.8          128200 
         3085.1          133500 
         3085.4          134200 
         3085.7          130400 
           3086          123000 
         3086.3          113900 
         3086.6          105800 
         3086.9          101200 
         3087.2          101600 
         3087.5          106800 
         3087.8          115000 
         3088.1          122900 
         3088.4          127000 
         3088.7          124700 
           3089          115600 
         3089.3          101700 
         3089.6           86340 
         3089.9           72610 
         3090.2           61810 
         3090.5           53520 
         3090.8           46550 
         3091.1           39950 
         3091.4           33530 
         3091.7           27710 
           3092           23190 
         3092.3           20590 
         3092.6           20310 
         3092.9           22420 
         3093.2           26590 
         3093.5           32130 
         3093.8           38080 
         3094.1           43450 
         3094.4           47340 
         3094.7           49160 
           3095           48700 
         3095.3           46280 
         3095.6           42770 
         3095.9           39370 
         3096.2           37490 
         3096.5           38250 
         3096.8           42120 
         3097.1           48470 
         3097.4           55570 
         3097.7           61060 
           3098           62820 
         3098.3           59970 
         3098.6           53110 
         3098.9           44060 
         3099.2           34950 
         3099.5           27480 
         3099.8           22490 
         3100.1           19960 
         3100.4           19340 
         3100.7           20020 
           3101           21740 
         3101.3           29950 
         3101.6           38070 
         3101.9           49480 
         3102.2           63620 
         3102.5           79190 
         3102.8           94720 
         3103.1          109200 
         3103.4          122100 
         3103.7          132600 
           3104          139100 
         3104.3          139900 
         3104.6          133600 
         3104.9          120900 
         3105.2          104900 
         3105.5           90360 
         3105.8           80780 
         3106.1           77910 
         3106.4           80930 
         3106.7           87310 
           3107           94070 
         3107.3           98800 
         3107.6          100300 
         3107.9           98550 
         3108.2           94780 
         3108.5           91050 
         3108.8           89800 
         3109.1           93250 
         3109.4          102900 
         3109.7          119200 
           3110          141500 
         3110.3          168100 
         3110.6          196400 
         3110.9          223300 
         3111.2          245400 
         3111.5          259100 
         3111.8          262300 
         3112.1          254000 
         3112.4          235700 
         3112.7          211400 
           3113          187500 
         3113.3          171800 
         3113.6          170100 
         3113.9          185200 
         3114.2          214500 
         3114.5          251100 
         3114.8          285000 
         3115.1          306200 
         3115.4          308000 
         3115.7          289100 
           3116          253200 
         3116.3          208300 
         3116.6          163900 
         3116.9          127400 
         3117.2          103100 
         3117.5           90480 
         3117.8           86600 
         3118.1           87150 
         3118.4           88630 
         3118.7           89440 
           3119           89980 
         3119.3           92060 
         3119.6           97460 
         3119.9          106400 
         3120.2          116700 
         3120.5          124100 
         3120.8          125100 
         3121.1          117900 
         3121.4          104200 
         3121.7           88470 
           3122           75870 
         3122.3           70590 
         3122.6           74620 
         3122.9           87350 
         3123.2          105700 
         3123.5          124800 
         3123.8          139800 
         3124.1          147100 
         3124.4          146600 
         3124.7          141200 
           3125          135800 
         3125.3          134700 
         3125.6          140600 
         3125.9          153200 
         3126.2          168800 
         3126.5          182200 
         3126.8          187200 
         3127.1          180300 
         3127.4          162500 
         3127.7          138900 
           3128          116700 
         3128.3          101900 
         3128.6           97170 
         3128.9          100800 
         3129.2          108600 
         3129.5          115600 
         3129.8          118300 
         3130.1          115700 
         3130.4          109000 
         3130.7          100500 
           3131           92230 
         3131.3           85300 
         3131.6           79730 
         3131.9           74830 
         3132.2           69850 
         3132.5           64490 
         3132.8           59320 
         3133.1           55840 
         3133.4           56240 
         3133.7           62510 
           3134           75330 
         3134.3           93020 
         3134.6          111600 
         3134.9          126000 
         3135.2          132600 
         3135.5          131300 
         3135.8          124800 
         3136.1          117900 
         3136.4          115000 
         3136.7          118300 
           3137          127900 
         3137.3          142100 
         3137.6          158900 
         3137.9          175600 
         3138.2          190000 
         3138.5          200600 
         3138.8          206100 
         3139.1          206300 
         3139.4          201800 
         3139.7          194700 
           3140          187600 
         3140.3          182300 
         3140.6          178700 
         3140.9          175600 
         3141.2          171300 
         3141.5          165500 
         3141.8          158800 
         3142.1          151900 
         3142.4          143900 
         3142.7          133400 
           3143          119400 
         3143.3          102900 
         3143.6           86910 
         3143.9           75050 
         3144.2           70590 
         3144.5           75450 
         3144.8           89520 
         3145.1          110200 
         3145.4          132600 
         3145.7          149900 
           3146          157000 
         3146.3          152300 
         3146.6          139300 
         3146.9          124800 
         3147.2          117000 
         3147.5          122300 
         3147.8          143100 
         3148.1          177100 
         3148.4          218100 
         3148.7          257100 
           3149          286200 
         3149.3          300500 
         3149.6          300100 
         3149.9          288600 
         3150.2          270600 
         3150.5          250000 
         3150.8          228800 
         3151.1          207800 
         3151.4          187900 
         3151.7          170300 
           3152          156800 
         3152.3          148500 
         3152.6          145500 
         3152.9          145500 
         3153.2          145600 
         3153.5          143800 
         3153.8          140500 
         3154.1          137900 
         3154.4          138300 
         3154.7          141800 
           3155          145700 
         3155.3          146200 
         3155.6          140700 
         3155.9          129100 
         3156.2          114000 
         3156.5           98960 
         3156.8           86970 
         3157.1           79570 
         3157.4           76800 
         3157.7           77630 
           3158           80770 
         3158.3           85000 
         3158.6           89340 
         3158.9           92900 
         3159.2           94920 
         3159.5           94850 
         3159.8           92690 
         3160.1           89190 
         3160.4           85690 
         3160.7           84090 
           3161           86440 
         3161.3           94660 
         3161.6          109900 
         3161.9          131700 
         3162.2          157400 
         3162.5          181700 
         3162.8          198500 
         3163.1          202900 
         3163.4          193500 
         3163.7          173300 
           3164          148600 
         3164.3          125900 
         3164.6          110100 
         3164.9          103900 
         3165.2          108000 
         3165.5          122200 
         3165.8          145600 
         3166.1          176100 
         3166.4          209600 
         3166.7          240000 
           3167          261000 
         3167.3          267900 
         3167.6          259500 
         3167.9          238700 
         3168.2          212100 
         3168.5          187100 
         3168.8          170400 
         3169.1          165800 
         3169.4          174000 
         3169.7          193600 
           3170          222400 
         3170.3          257600 
         3170.6          296800 
         3170.9          337300 
         3171.2          375200 
         3171.5          405900 
         3171.8          423600 
         3172.1          424800 
         3172.4          409900 
         3172.7          385200 
           3173          361400 
         3173.3          348500 
         3173.6          350800 
         3173.9          366100 
         3174.2          388500 
         3174.5          412500 
         3174.8          435700 
         3175.1          458700 
         3175.4          480200 
         3175.7          496300 
           3176          500300 
         3176.3          486200 
         3176.6          452700 
         3176.9          404700 
         3177.2          352400 
         3177.5          307000 
         3177.8          275700 
         3178.1          258600 
