# Granada HRES Library
# atmosphere = Phoenix  (atmosphere model used)
# feh = 0  (value for [Fe/H] for the model.)
# logg = 5.5 log(cm/s2) (value for Log(G) for the model.)
# teff = 4500 K (value for the effective temperature for the model. Temperatures are given in K)
#
# column 1: WAVELENGTH (ANGSTROM), Wavelength in Angstrom
# column 2: FLUX (ERG/CM2/S/A), Flux in erg/cm2/s/A
         3000.2           17130 
         3000.5           16410 
         3000.8           15880 
         3001.1           15510 
         3001.4           15220 
         3001.7           14830 
           3002           14320 
         3002.3           13800 
         3002.6           13600 
         3002.9           14070 
         3003.2           15470 
         3003.5           17790 
         3003.8           20830 
         3004.1           24160 
         3004.4           27360 
         3004.7           30030 
           3005           31910 
         3005.3           32860 
         3005.6           32820 
         3005.9           31800 
         3006.2           29940 
         3006.5           27490 
         3006.8           24800 
         3007.1           22300 
         3007.4           20340 
         3007.7           19170 
           3008           18830 
         3008.3           19280 
         3008.6           20350 
         3008.9           21930 
         3009.2           23890 
         3009.5           26140 
         3009.8           28490 
         3010.1           30590 
         3010.4           32030 
         3010.7           32540 
           3011           32130 
         3011.3           31190 
         3011.6           30300 
         3011.9           29950 
         3012.2           30330 
         3012.5           31260 
         3012.8           32330 
         3013.1           33100 
         3013.4           33340 
         3013.7           33010 
           3014           32210 
         3014.3           31150 
         3014.6           30030 
         3014.9           29020 
         3015.2           28210 
         3015.5           27620 
         3015.8           27270 
         3016.1           27110 
         3016.4           27040 
         3016.7           26930 
           3017           26640 
         3017.3           26130 
         3017.6           25430 
         3017.9           24600 
         3018.2           23670 
         3018.5           22610 
         3018.8           21370 
         3019.1           19870 
         3019.4           18140 
         3019.7           16260 
           3020           14410 
         3020.3           12890 
         3020.6           12030 
         3020.9           12070 
         3021.2           13110 
         3021.5           15000 
         3021.8           17380 
         3022.1           19800 
         3022.4           21790 
         3022.7           23020 
           3023           23320 
         3023.3           22800 
         3023.6           21770 
         3023.9           20660 
         3024.2           19800 
         3024.5           19290 
         3024.8           19020 
         3025.1           18840 
         3025.4           18730 
         3025.7           18910 
           3026           19680 
         3026.3           21250 
         3026.6           23550 
         3026.9           26270 
         3027.2           29010 
         3027.5           31420 
         3027.8           33330 
         3028.1           34740 
         3028.4           35740 
         3028.7           36420 
           3029           36820 
         3029.3           36900 
         3029.6           36630 
         3029.9           35970 
         3030.2           34980 
         3030.5           33870 
         3030.8           32960 
         3031.1           32700 
         3031.4           33450 
         3031.7           35250 
           3032           37720 
         3032.3           40130 
         3032.6           41670 
         3032.9           41850 
         3033.2           40650 
         3033.5           38550 
         3033.8           36310 
         3034.1           34650 
         3034.4           33930 
         3034.7           34060 
           3035           34550 
         3035.3           34780 
         3035.6           34260 
         3035.9           32790 
         3036.2           30530 
         3036.5           27880 
         3036.8           25370 
         3037.1           23510 
         3037.4           22680 
         3037.7           23010 
           3038           24330 
         3038.3           26260 
         3038.6           28320 
         3038.9           30130 
         3039.2           31400 
         3039.5           31980 
         3039.8           31830 
         3040.1           30970 
         3040.4           29550 
         3040.7           27800 
           3041           26030 
         3041.3           24600 
         3041.6           23880 
         3041.9           24140 
         3042.2           25460 
         3042.5           27650 
         3042.8           30290 
         3043.1           32860 
         3043.4           34970 
         3043.7           36390 
           3044           37090 
         3044.3           37230 
         3044.6           37040 
         3044.9           36730 
         3045.2           36380 
         3045.5           35880 
         3045.8           34970 
         3046.1           33450 
         3046.4           31250 
         3046.7           28590 
           3047           25920 
         3047.3           23770 
         3047.6           22580 
         3047.9           22540 
         3048.2           23610 
         3048.5           25520 
         3048.8           27830 
         3049.1           30030 
         3049.4           31640 
         3049.7           32390 
           3050           32340 
         3050.3           31840 
         3050.6           31430 
         3050.9           31560 
         3051.2           32410 
         3051.5           33840 
         3051.8           35440 
         3052.1           36740 
         3052.4           37340 
         3052.7           37000 
           3053           35750 
         3053.3           33840 
         3053.6           31730 
         3053.9           29920 
         3054.2           28800 
         3054.5           28550 
         3054.8           29060 
         3055.1           30000 
         3055.4           30910 
         3055.7           31370 
           3056           31100 
         3056.3           30070 
         3056.6           28420 
         3056.9           26490 
         3057.2           24610 
         3057.5           23070 
         3057.8           21950 
         3058.1           21240 
         3058.4           20900 
         3058.7           20990 
           3059           21700 
         3059.3           23220 
         3059.6           25590 
         3059.9           28590 
         3060.2           31820 
         3060.5           34800 
         3060.8           37150 
         3061.1           38700 
         3061.4           39510 
         3061.7           39700 
           3062           39320 
         3062.3           38290 
         3062.6           36430 
         3062.9           33700 
         3063.2           30380 
         3063.5           26970 
         3063.8           24100 
         3064.1           22200 
         3064.4           21380 
         3064.7           21400 
           3065           21810 
         3065.3           22160 
         3065.6           22170 
         3065.9           21800 
         3066.2           21180 
         3066.5           20580 
         3066.8           20190 
         3067.1           20180 
         3067.4           20610 
         3067.7           21500 
           3068           22800 
         3068.3           24360 
         3068.6           25980 
         3068.9           27400 
         3069.2           28410 
         3069.5           28980 
         3069.8           29310 
         3070.1           29760 
         3070.4           30680 
         3070.7           32210 
           3071           34240 
         3071.3           36490 
         3071.6           38700 
         3071.9           40780 
         3072.2           42720 
         3072.5           44460 
         3072.8           45780 
         3073.1           46410 
         3073.4           46230 
         3073.7           45350 
           3074           44030 
         3074.3           42570 
         3074.6           41170 
         3074.9           40040 
         3075.2           39460 
         3075.5           39750 
         3075.8           41060 
         3076.1           43200 
         3076.4           45630 
         3076.7           47640 
           3077           48690 
         3077.3           48600 
         3077.6           47590 
         3077.9           46150 
         3078.2           44760 
         3078.5           43720 
         3078.8           42940 
         3079.1           42090 
         3079.4           40800 
         3079.7           38860 
           3080           36310 
         3080.3           33380 
         3080.6           30330 
         3080.9           27450 
         3081.2           24940 
         3081.5           23010 
         3081.8           21800 
         3082.1           21350 
         3082.4           21560 
         3082.7           22220 
           3083           23140 
         3083.3           24240 
         3083.6           25490 
         3083.9           26910 
         3084.2           28420 
         3084.5           29950 
         3084.8           31450 
         3085.1           32870 
         3085.4           34110 
         3085.7           35030 
           3086           35540 
         3086.3           35790 
         3086.6           36110 
         3086.9           36940 
         3087.2           38540 
         3087.5           40850 
         3087.8           43380 
         3088.1           45370 
         3088.4           46090 
         3088.7           45090 
           3089           42450 
         3089.3           38750 
         3089.6           34770 
         3089.9           31180 
         3090.2           28310 
         3090.5           26130 
         3090.8           24390 
         3091.1           22800 
         3091.4           21200 
         3091.7           19560 
           3092           18040 
         3092.3           16980 
         3092.6           16730 
         3092.9           17570 
         3093.2           19460 
         3093.5           22090 
         3093.8           24920 
         3094.1           27420 
         3094.4           29190 
         3094.7           30060 
           3095           30060 
         3095.3           29380 
         3095.6           28320 
         3095.9           27280 
         3096.2           26680 
         3096.5           26890 
         3096.8           28070 
         3097.1           30010 
         3097.4           32130 
         3097.7           33690 
           3098           34030 
         3098.3           32900 
         3098.6           30520 
         3098.9           27480 
         3099.2           24530 
         3099.5           22300 
         3099.8           21150 
         3100.1           21060 
         3100.4           21710 
         3100.7           22650 
           3101           23570 
         3101.3           25290 
         3101.6           26660 
         3101.9           28760 
         3102.2           31580 
         3102.5           34920 
         3102.8           38400 
         3103.1           41630 
         3103.4           44260 
         3103.7           46010 
           3104           46610 
         3104.3           45910 
         3104.6           43960 
         3104.9           41050 
         3105.2           37810 
         3105.5           34880 
         3105.8           32780 
         3106.1           31720 
         3106.4           31650 
         3106.7           32290 
           3107           33350 
         3107.3           34540 
         3107.6           35670 
         3107.9           36590 
         3108.2           37270 
         3108.5           37850 
         3108.8           38590 
         3109.1           39800 
         3109.4           41630 
         3109.7           44050 
           3110           46840 
         3110.3           49580 
         3110.6           51810 
         3110.9           53100 
         3111.2           53290 
         3111.5           52520 
         3111.8           51170 
         3112.1           49730 
         3112.4           48600 
         3112.7           48220 
           3113           49000 
         3113.3           51370 
         3113.6           55680 
         3113.9           61900 
         3114.2           69460 
         3114.5           77240 
         3114.8           83690 
         3115.1           87310 
         3115.4           87070 
         3115.7           82810 
           3116           75360 
         3116.3           66290 
         3116.6           57510 
         3116.9           50660 
         3117.2           46680 
         3117.5           45650 
         3117.8           46920 
         3118.1           49400 
         3118.4           52030 
         3118.7           54260 
           3119           56120 
         3119.3           58210 
         3119.6           61180 
         3119.9           65100 
         3120.2           69140 
         3120.5           71830 
         3120.8           71670 
         3121.1           68100 
         3121.4           61820 
         3121.7           54520 
           3122           48110 
         3122.3           43980 
         3122.6           42590 
         3122.9           43590 
         3123.2           46080 
         3123.5           49110 
         3123.8           51880 
         3124.1           53950 
         3124.4           55310 
         3124.7           56230 
           3125           57240 
         3125.3           58930 
         3125.6           61830 
         3125.9           66060 
         3126.2           71190 
         3126.5           75990 
         3126.8           78840 
         3127.1           78390 
         3127.4           74350 
         3127.7           67700 
           3128           60200 
         3128.3           53580 
         3128.6           48810 
         3128.9           46020 
         3129.2           44780 
         3129.5           44600 
         3129.8           45240 
         3130.1           46760 
         3130.4           49310 
         3130.7           52870 
           3131           56940 
         3131.3           60600 
         3131.6           62800 
         3131.9           62750 
         3132.2           60340 
         3132.5           56070 
         3132.8           50920 
         3133.1           46030 
         3133.4           42470 
         3133.7           41040 
           3134           42060 
         3134.3           45190 
         3134.6           49350 
         3134.9           53170 
         3135.2           55500 
         3135.5           55990 
         3135.8           55260 
         3136.1           54660 
         3136.4           55720 
         3136.7           59630 
           3137           66790 
         3137.3           76480 
         3137.6           86960 
         3137.9           95910 
         3138.2          101100 
         3138.5          101500 
         3138.8           97370 
         3139.1           90010 
         3139.4           81380 
         3139.7           73260 
           3140           66840 
         3140.3           62570 
         3140.6           60190 
         3140.9           59070 
         3141.2           58540 
         3141.5           58240 
         3141.8           58000 
         3142.1           57650 
         3142.4           56890 
         3142.7           55460 
           3143           53380 
         3143.3           51080 
         3143.6           49210 
         3143.9           48270 
         3144.2           48380 
         3144.5           49390 
         3144.8           51000 
         3145.1           52910 
         3145.4           54630 
         3145.7           55580 
           3146           55370 
         3146.3           54170 
         3146.6           52940 
         3146.9           53140 
         3147.2           56140 
         3147.5           62540 
         3147.8           71800 
         3148.1           82180 
         3148.4           91190 
         3148.7           96480 
           3149           96690 
         3149.3           92010 
         3149.6           83940 
         3149.9           74640 
         3150.2           66070 
         3150.5           59520 
         3150.8           55510 
         3151.1           53940 
         3151.4           54320 
         3151.7           55940 
           3152           58030 
         3152.3           59850 
         3152.6           60820 
         3152.9           60670 
         3153.2           59560 
         3153.5           58120 
         3153.8           57260 
         3154.1           57780 
         3154.4           59870 
         3154.7           62970 
           3155           65980 
         3155.3           68020 
         3155.6           68800 
         3155.9           68800 
         3156.2           68940 
         3156.5           70170 
         3156.8           73140 
         3157.1           77870 
         3157.4           83910 
         3157.7           90430 
           3158           96590 
         3158.3          101700 
         3158.6          105500 
         3158.9          107200 
         3159.2          106300 
         3159.5          102200 
         3159.8           95160 
         3160.1           86350 
         3160.4           77770 
         3160.7           71480 
           3161           68960 
         3161.3           70960 
         3161.6           77460 
         3161.9           87820 
         3162.2          100600 
         3162.5          113300 
         3162.8          123100 
         3163.1          127500 
         3163.4          125300 
         3163.7          117900 
           3164          107800 
         3164.3           98240 
         3164.6           91510 
         3164.9           88940 
         3165.2           91100 
         3165.5           98310 
         3165.8          110500 
         3166.1          126700 
         3166.4          144500 
         3166.7          160000 
           3167          169200 
         3167.3          169900 
         3167.6          162500 
         3167.9          150100 
         3168.2          137900 
         3168.5          131200 
         3168.8          133000 
         3169.1          143000 
         3169.4          157700 
         3169.7          171800 
           3170          180900 
         3170.3          182800 
         3170.6          178800 
         3170.9          172600 
         3171.2          168400 
         3171.5          168300 
         3171.8          171600 
         3172.1          176000 
         3172.4          178400 
         3172.7          178400 
           3173          177700 
         3173.3          179600 
         3173.6          185700 
         3173.9          195200 
         3174.2          204900 
         3174.5          211900 
         3174.8          215100 
         3175.1          216100 
         3175.4          216900 
         3175.7          218200 
           3176          218500 
         3176.3          215300 
         3176.6          206400 
         3176.9          191900 
         3177.2          174700 
         3177.5          158200 
         3177.8          145500 
         3178.1          137200 
