# Granada HRES Library
# atmosphere = Spectrum  (atmosphere model used)
# feh = 3  (value for [Fe/H] for the model.)
# logg = 3.5 log(cm/s2) (value for Log(G) for the model.)
# teff = 5000 K (value for the effective temperature for the model. Temperatures are given in K)
#
# column 1: WAVELENGTH (ANGSTROM), Wavelength in Angstrom
# column 2: FLUX (ERG/CM2/S/A), Flux in erg/cm2/s/A
         3000.2           40750 
         3000.5           42160 
         3000.8           44200 
         3001.1           47050 
         3001.4           50790 
         3001.7           55970 
           3002           63290 
         3002.3           73830 
         3002.6           89010 
         3002.9          110300 
         3003.2          138800 
         3003.5          174800 
         3003.8          217400 
         3004.1          263900 
         3004.4          310400 
         3004.7          351900 
           3005          383300 
         3005.3          400200 
         3005.6          400300 
         3005.9          383100 
         3006.2          351100 
         3006.5          308700 
         3006.8          261600 
         3007.1          215700 
         3007.4          176300 
         3007.7          147200 
           3008          130800 
         3008.3          128300 
         3008.6          139400 
         3008.9          163400 
         3009.2          197800 
         3009.5          239300 
         3009.8          282900 
         3010.1          323400 
         3010.4          355700 
         3010.7          376900 
           3011          386200 
         3011.3          386200 
         3011.6          381000 
         3011.9          375300 
         3012.2          372100 
         3012.5          372500 
         3012.8          375300 
         3013.1          377900 
         3013.4          377700 
         3013.7          373000 
           3014          363200 
         3014.3          348900 
         3014.6          331400 
         3014.9          312300 
         3015.2          292600 
         3015.5          272900 
         3015.8          253200 
         3016.1          233400 
         3016.4          213000 
         3016.7          192000 
           3017          170400 
         3017.3          149000 
         3017.6          128400 
         3017.9          109200 
         3018.2           91950 
         3018.5           76740 
         3018.8           63740 
         3019.1           52690 
         3019.4           43550 
         3019.7           36340 
           3020           31220 
         3020.3           28440 
         3020.6           28280 
         3020.9           31040 
         3021.2           36780 
         3021.5           45260 
         3021.8           55960 
         3022.1           68050 
         3022.4           80510 
         3022.7           92260 
           3023          102400 
         3023.3          110200 
         3023.6          115400 
         3023.9          118200 
         3024.2          119000 
         3024.5          119100 
         3024.8          120400 
         3025.1          125400 
         3025.4          137000 
         3025.7          158400 
           3026          192000 
         3026.3          238700 
         3026.6          297400 
         3026.9          364600 
         3027.2          434900 
         3027.5          501600 
         3027.8          557700 
         3028.1          596900 
         3028.4          615300 
         3028.7          612100 
           3029          589400 
         3029.3          552300 
         3029.6          508200 
         3029.9          464500 
         3030.2          428200 
         3030.5          405100 
         3030.8          399600 
         3031.1          414100 
         3031.4          448700 
         3031.7          500700 
           3032          564700 
         3032.3          633600 
         3032.6          699300 
         3032.9          755600 
         3033.2          798400 
         3033.5          825800 
         3033.8          838400 
         3034.1          837300 
         3034.4          823700 
         3034.7          797300 
           3035          757500 
         3035.3          703300 
         3035.6          635200 
         3035.9          556200 
         3036.2          471500 
         3036.5          388400 
         3036.8          314700 
         3037.1          257300 
         3037.4          220600 
         3037.7          205800 
           3038          211500 
         3038.3          233300 
         3038.6          264900 
         3038.9          299600 
         3039.2          331000 
         3039.5          354400 
         3039.8          366700 
         3040.1          367600 
         3040.4          358700 
         3040.7          343500 
           3041          326000 
         3041.3          310900 
         3041.6          302500 
         3041.9          304100 
         3042.2          317400 
         3042.5          342100 
         3042.8          375700 
         3043.1          413800 
         3043.4          451400 
         3043.7          483200 
           3044          505200 
         3044.3          515000 
         3044.6          511300 
         3044.9          494700 
         3045.2          466400 
         3045.5          428800 
         3045.8          384600 
         3046.1          336900 
         3046.4          289400 
         3046.7          246600 
           3047          212600 
         3047.3          191100 
         3047.6          184700 
         3047.9          193600 
         3048.2          215900 
         3048.5          247200 
         3048.8          282400 
         3049.1          316300 
         3049.4          345500 
         3049.7          370300 
           3050          394100 
         3050.3          422600 
         3050.6          461400 
         3050.9          513100 
         3051.2          575400 
         3051.5          640600 
         3051.8          697600 
         3052.1          734600 
         3052.4          743000 
         3052.7          720100 
           3053          670300 
         3053.3          603500 
         3053.6          532500 
         3053.9          469200 
         3054.2          421500 
         3054.5          392100 
         3054.8          378600 
         3055.1          374700 
         3055.4          372600 
         3055.7          365300 
           3056          348400 
         3056.3          320600 
         3056.6          283700 
         3056.9          241900 
         3057.2          200200 
         3057.5          163100 
         3057.8          134300 
         3058.1          116000 
         3058.4          109800 
         3058.7          117000 
           3059          138300 
         3059.3          174400 
         3059.6          225100 
         3059.9          289100 
         3060.2          363300 
         3060.5          442600 
         3060.8          520800 
         3061.1          590800 
         3061.4          645800 
         3061.7          680600 
           3062          692000 
         3062.3          679200 
         3062.6          644900 
         3062.9          594700 
         3063.2          536400 
         3063.5          478500 
         3063.8          428700 
         3064.1          391900 
         3064.4          369200 
         3064.7          358100 
           3065          352800 
         3065.3          347500 
         3065.6          337200 
         3065.9          320700 
         3066.2          300400 
         3066.5          281900 
         3066.8          272900 
         3067.1          281400 
         3067.4          311900 
         3067.7          366600 
           3068          442600 
         3068.3          533300 
         3068.6          629700 
         3068.9          721800 
         3069.2          800900 
         3069.5          861500 
         3069.8          902000 
         3070.1          923600 
         3070.4          929800 
         3070.7          923800 
           3071          908600 
         3071.3          886200 
         3071.6          858800 
         3071.9          829100 
         3072.2          800300 
         3072.5          775100 
         3072.8          754900 
         3073.1          738400 
         3073.4          722800 
         3073.7          704700 
           3074          681900 
         3074.3          654500 
         3074.6          626100 
         3074.9          602500 
         3075.2          591100 
         3075.5          596800 
         3075.8          621500 
         3076.1          662100 
         3076.4          711300 
         3076.7          759200 
           3077          797100 
         3077.3          819400 
         3077.6          825100 
         3077.9          817800 
         3078.2          803000 
         3078.5          786800 
         3078.8          773000 
         3079.1          762800 
         3079.4          753300 
         3079.7          740600 
           3080          720600 
         3080.3          690700 
         3080.6          650800 
         3080.9          603400 
         3081.2          553400 
         3081.5          505800 
         3081.8          467200 
         3082.1          442000 
         3082.4          433700 
         3082.7          444700 
           3083          476500 
         3083.3          530300 
         3083.6          605500 
         3083.9          699800 
         3084.2          807900 
         3084.5          921500 
         3084.8        1.029e+6 
         3085.1        1.119e+6 
         3085.4        1.178e+6 
         3085.7        1.199e+6 
           3086        1.178e+6 
         3086.3         1.12e+6 
         3086.6        1.035e+6 
         3086.9          937400 
         3087.2          841000 
         3087.5          758200 
         3087.8          695300 
         3088.1          652600 
         3088.4          624700 
         3088.7          603700 
           3089          581500 
         3089.3          553000 
         3089.6          516300 
         3089.9          473500 
         3090.2          428400 
         3090.5          384900 
         3090.8          346000 
         3091.1          313100 
         3091.4          286800 
         3091.7          266600 
           3092          252600 
         3092.3          245100 
         3092.6          245400 
         3092.9          254900 
         3093.2          274500 
         3093.5          303200 
         3093.8          338100 
         3094.1          374300 
         3094.4          406200 
         3094.7          428700 
           3095          438800 
         3095.3          435700 
         3095.6          422200 
         3095.9          402900 
         3096.2          383500 
         3096.5          368700 
         3096.8          361000 
         3097.1          359700 
         3097.4          361200 
         3097.7          360400 
           3098          352300 
         3098.3          333700 
         3098.6          304400 
         3098.9          267100 
         3099.2          226200 
         3099.5          186700 
         3099.8          153300 
         3100.1          129900 
         3100.4          119100 
         3100.7          122800 
           3101          142400 
         3101.3          178800 
         3101.6          231600 
         3101.9          298900 
         3102.2          376700 
         3102.5          459200 
         3102.8          539200 
         3103.1          609900 
         3103.4          666300 
         3103.7          704800 
           3104          725400 
         3104.3          731200 
         3104.6          727300 
         3104.9          720000 
         3105.2          716600 
         3105.5          723100 
         3105.8          743400 
         3106.1          778000 
         3106.4          825100 
         3106.7          880500 
           3107          939000 
         3107.3          996000 
         3107.6        1.047e+6 
         3107.9        1.088e+6 
         3108.2        1.117e+6 
         3108.5        1.131e+6 
         3108.8        1.131e+6 
         3109.1        1.119e+6 
         3109.4          1.1e+6 
         3109.7        1.081e+6 
           3110        1.071e+6 
         3110.3        1.074e+6 
         3110.6        1.094e+6 
         3110.9        1.127e+6 
         3111.2        1.165e+6 
         3111.5        1.197e+6 
         3111.8        1.212e+6 
         3112.1        1.203e+6 
         3112.4        1.168e+6 
         3112.7        1.112e+6 
           3113        1.043e+6 
         3113.3          973700 
         3113.6          916800 
         3113.9          880500 
         3114.2          868600 
         3114.5          878100 
         3114.8          901000 
         3115.1          926400 
         3115.4          943900 
         3115.7          945700 
           3116          928600 
         3116.3          893500 
         3116.6          845200 
         3116.9          790500 
         3117.2          735600 
         3117.5          685300 
         3117.8          642800 
         3118.1          609400 
         3118.4          585400 
         3118.7          570900 
           3119          566000 
         3119.3          571000 
         3119.6          586100 
         3119.9          610100 
         3120.2          638800 
         3120.5          666900 
         3120.8          686900 
         3121.1          692500 
         3121.4          681700 
         3121.7          657300 
           3122          625900 
         3122.3          597100 
         3122.6          579600 
         3122.9          578400 
         3123.2          594500 
         3123.5          623200 
         3123.8          656800 
         3124.1          686900 
         3124.4          707700 
         3124.7          718100 
           3125          721100 
         3125.3          724000 
         3125.6          733500 
         3125.9          754600 
         3126.2          787000 
         3126.5          826100 
         3126.8          864300 
         3127.1          893800 
         3127.4          908200 
         3127.7          905300 
           3128          887700 
         3128.3          860100 
         3128.6          829800 
         3128.9          802000 
         3129.2          779900 
         3129.5          763500 
         3129.8          751500 
         3130.1          741400 
         3130.4          731400 
         3130.7          720200 
           3131          706600 
         3131.3          689700 
         3131.6          668700 
         3131.9          643400 
         3132.2          613800 
         3132.5          582400 
         3132.8          552300 
         3133.1          527900 
         3133.4          514700 
         3133.7          517300 
           3134          538700 
         3134.3          578500 
         3134.6          632000 
         3134.9          691700 
         3135.2          748600 
         3135.5          795000 
         3135.8          826500 
         3136.1          842700 
         3136.4          846300 
         3136.7          840900 
           3137          830200 
         3137.3          817500 
         3137.6          804500 
         3137.9          793900 
         3138.2          787900 
         3138.5          789300 
         3138.8          800200 
         3139.1          821300 
         3139.4          852500 
         3139.7          891800 
           3140          936200 
         3140.3          981000 
         3140.6         1.02e+6 
         3140.9        1.047e+6 
         3141.2        1.054e+6 
         3141.5        1.039e+6 
         3141.8          997800 
         3142.1          933600 
         3142.4          850300 
         3142.7          754500 
           3143          654000 
         3143.3          557200 
         3143.6          471400 
         3143.9          403300 
         3144.2          356700 
         3144.5          333100 
         3144.8          331200 
         3145.1          347000 
         3145.4          375300 
         3145.7          409700 
           3146          445100 
         3146.3          479400 
         3146.6          513300 
         3146.9          550300 
         3147.2          594200 
         3147.5          648100 
         3147.8          712900 
         3148.1          784800 
         3148.4          858000 
         3148.7          925700 
           3149          982000 
         3149.3        1.024e+6 
         3149.6        1.053e+6 
         3149.9        1.069e+6 
         3150.2        1.078e+6 
         3150.5        1.079e+6 
         3150.8        1.074e+6 
         3151.1        1.062e+6 
         3151.4        1.045e+6 
         3151.7        1.024e+6 
           3152        1.004e+6 
         3152.3          988200 
         3152.6          978400 
         3152.9          974800 
         3153.2          974700 
         3153.5          974800 
         3153.8          971400 
         3154.1          962600 
         3154.4          948000 
         3154.7          927900 
           3155          902700 
         3155.3          871300 
         3155.6          831800 
         3155.9          783400 
         3156.2          725700 
         3156.5          660400 
         3156.8          591800 
         3157.1          524900 
         3157.4          465500 
         3157.7          417000 
           3158          382000 
         3158.3          360500 
         3158.6          350100 
         3158.9          347300 
         3159.2          349000 
         3159.5          351300 
         3159.8          352700 
         3160.1          351800 
         3160.4          350900 
         3160.7          352400 
           3161          360200 
         3161.3          377100 
         3161.6          405000 
         3161.9          443700 
         3162.2          489900 
         3162.5          538600 
         3162.8          583700 
         3163.1          619800 
         3163.4          642500 
         3163.7          651300 
           3164          648600 
         3164.3          639800 
         3164.6          631400 
         3164.9          629400 
         3165.2          637900 
         3165.5          658100 
         3165.8          688000 
         3166.1          722800 
         3166.4          756600 
         3166.7          782300 
           3167          794600 
         3167.3          791800 
         3167.6          774800 
         3167.9          750000 
         3168.2          726000 
         3168.5          712300 
         3168.8          716800 
         3169.1          742900 
         3169.4          788700 
         3169.7          848300 
           3170          913300 
         3170.3          975400 
         3170.6        1.029e+6 
         3170.9        1.073e+6 
         3171.2        1.109e+6 
         3171.5        1.139e+6 
         3171.8        1.165e+6 
         3172.1        1.187e+6 
         3172.4        1.202e+6 
         3172.7        1.206e+6 
           3173        1.197e+6 
         3173.3        1.178e+6 
         3173.6        1.151e+6 
         3173.9        1.123e+6 
         3174.2        1.102e+6 
         3174.5        1.096e+6 
         3174.8        1.111e+6 
         3175.1        1.147e+6 
         3175.4        1.202e+6 
         3175.7        1.265e+6 
           3176        1.322e+6 
         3176.3        1.357e+6 
         3176.6         1.36e+6 
         3176.9        1.323e+6 
         3177.2        1.251e+6 
         3177.5        1.151e+6 
         3177.8        1.035e+6 
         3178.1          917300 
