# Granada HRES Library
# atmosphere = Phoenix  (atmosphere model used)
# feh = 3  (value for [Fe/H] for the model.)
# logg = 3 log(cm/s2) (value for Log(G) for the model.)
# teff = 3000 K (value for the effective temperature for the model. Temperatures are given in K)
#
# column 1: WAVELENGTH (ANGSTROM), Wavelength in Angstrom
# column 2: FLUX (ERG/CM2/S/A), Flux in erg/cm2/s/A
         3000.2           39.28 
         3000.5           32.72 
         3000.8           28.54 
         3001.1           26.45 
         3001.4           25.73 
         3001.7           25.56 
           3002           25.49 
         3002.3           25.72 
         3002.6           27.16 
         3002.9              31 
         3003.2           38.23 
         3003.5           49.23 
         3003.8           63.48 
         3004.1           79.59 
         3004.4           95.57 
         3004.7           109.3 
           3005             119 
         3005.3           123.3 
         3005.6           121.6 
         3005.9           114.3 
         3006.2           102.8 
         3006.5           88.81 
         3006.8           74.83 
         3007.1           62.84 
         3007.4            54.2 
         3007.7           49.65 
           3008           49.43 
         3008.3           53.57 
         3008.6           62.18 
         3008.9           75.62 
         3009.2           94.08 
         3009.5           116.8 
         3009.8           141.4 
         3010.1           163.7 
         3010.4           179.4 
         3010.7           185.6 
           3011           182.7 
         3011.3           173.7 
         3011.6             163 
         3011.9           153.9 
         3012.2           148.2 
         3012.5           145.7 
         3012.8           144.9 
         3013.1           144.6 
         3013.4           144.4 
         3013.7           144.2 
           3014           143.9 
         3014.3           143.5 
         3014.6           142.5 
         3014.9           141.2 
         3015.2           139.4 
         3015.5           136.9 
         3015.8           133.4 
         3016.1           128.5 
         3016.4           122.2 
         3016.7           114.4 
           3017           105.5 
         3017.3           96.52 
         3017.6           88.04 
         3017.9           80.45 
         3018.2           73.39 
         3018.5            66.1 
         3018.8              58 
         3019.1           49.09 
         3019.4           39.88 
         3019.7           31.19 
           3020           23.86 
         3020.3            18.7 
         3020.6           16.36 
         3020.9           17.34 
         3021.2            21.8 
         3021.5           29.48 
         3021.8           39.53 
         3022.1           50.57 
         3022.4           60.84 
         3022.7           68.58 
           3023           72.48 
         3023.3           72.13 
         3023.6           68.27 
         3023.9           62.45 
         3024.2            56.4 
         3024.5           51.31 
         3024.8           47.62 
         3025.1           45.34 
         3025.4           44.59 
         3025.7           45.73 
           3026           49.07 
         3026.3           54.33 
         3026.6           60.51 
         3026.9           66.25 
         3027.2           70.72 
         3027.5           74.31 
         3027.8           78.53 
         3028.1           85.37 
         3028.4           96.09 
         3028.7           110.5 
           3029           126.3 
         3029.3           140.4 
         3029.6           150.3 
         3029.9           154.5 
         3030.2           154.2 
         3030.5           152.3 
         3030.8           152.8 
         3031.1           158.9 
         3031.4           171.5 
         3031.7           188.3 
           3032           203.9 
         3032.3           212.1 
         3032.6           208.7 
         3032.9           193.3 
         3033.2             170 
         3033.5           145.3 
         3033.8           125.6 
         3034.1           115.1 
         3034.4           114.3 
         3034.7           120.4 
           3035           128.9 
         3035.3           134.8 
         3035.6           134.8 
         3035.9           127.8 
         3036.2             115 
         3036.5           99.34 
         3036.8           84.53 
         3037.1           74.35 
         3037.4           71.43 
         3037.7            76.6 
           3038           88.61 
         3038.3           104.8 
         3038.6             122 
         3038.9             138 
         3039.2             151 
         3039.5           160.2 
         3039.8           164.4 
         3040.1           162.8 
         3040.4           155.5 
         3040.7           143.9 
           3041           131.3 
         3041.3           121.5 
         3041.6           117.7 
         3041.9           121.3 
         3042.2           131.1 
         3042.5             144 
         3042.8           155.9 
         3043.1           163.9 
         3043.4           166.9 
         3043.7           165.7 
           3044           162.3 
         3044.3             159 
         3044.6             157 
         3044.9           156.9 
         3045.2           157.7 
         3045.5           157.7 
         3045.8           154.4 
         3046.1           145.9 
         3046.4           131.7 
         3046.7             113 
           3047           93.15 
         3047.3           75.98 
         3047.6           64.95 
         3047.9           62.21 
         3048.2           68.16 
         3048.5           81.48 
         3048.8           99.15 
         3049.1           116.9 
         3049.4             130 
         3049.7           135.4 
           3050           132.7 
         3050.3           124.2 
         3050.6           114.4 
         3050.9           107.2 
         3051.2           104.9 
         3051.5           107.5 
         3051.8           113.2 
         3052.1           119.2 
         3052.4           122.9 
         3052.7           122.4 
           3053           117.1 
         3053.3           108.3 
         3053.6           98.61 
         3053.9           90.72 
         3054.2           86.59 
         3054.5           86.65 
         3054.8           89.81 
         3055.1           93.94 
         3055.4           96.87 
         3055.7           97.21 
           3056            94.8 
         3056.3           90.48 
         3056.6           85.51 
         3056.9           80.97 
         3057.2            77.4 
         3057.5           74.65 
         3057.8           72.21 
         3058.1           69.61 
         3058.4           67.11 
         3058.7           65.94 
           3059           67.96 
         3059.3           74.77 
         3059.6           86.88 
         3059.9           103.4 
         3060.2           122.4 
         3060.5           141.4 
         3060.8           158.2 
         3061.1           171.5 
         3061.4           180.4 
         3061.7             184 
           3062           181.5 
         3062.3           171.7 
         3062.6           154.4 
         3062.9             131 
         3063.2           104.9 
         3063.5           80.28 
         3063.8           60.83 
         3064.1           48.37 
         3064.4           42.58 
         3064.7           41.67 
           3065           43.47 
         3065.3           46.43 
         3065.6           49.97 
         3065.9           54.22 
         3066.2           59.32 
         3066.5           64.88 
         3066.8           69.96 
         3067.1           73.62 
         3067.4           75.57 
         3067.7           76.31 
           3068           76.69 
         3068.3           77.17 
         3068.6           77.42 
         3068.9            76.6 
         3069.2           74.07 
         3069.5           70.17 
         3069.8           66.57 
         3070.1            65.7 
         3070.4           69.72 
         3070.7           79.45 
           3071           93.91 
         3071.3           110.9 
         3071.6           128.1 
         3071.9             144 
         3072.2             158 
         3072.5           170.1 
         3072.8           180.2 
         3073.1           188.1 
         3073.4           193.9 
         3073.7           197.5 
           3074           199.3 
         3074.3           199.2 
         3074.6           197.9 
         3074.9           197.2 
         3075.2           199.7 
         3075.5             208 
         3075.8           222.7 
         3076.1           241.2 
         3076.4           258.4 
         3076.7           269.1 
           3077           270.4 
         3077.3           262.8 
         3077.6           249.3 
         3077.9           233.6 
         3078.2           218.8 
         3078.5           205.8 
         3078.8           193.6 
         3079.1           180.3 
         3079.4           164.4 
         3079.7           145.6 
           3080           125.1 
         3080.3           104.5 
         3080.6           85.51 
         3080.9           69.18 
         3081.2           56.25 
         3081.5           47.19 
         3081.8           42.21 
         3082.1           41.01 
         3082.4           42.68 
         3082.7           46.04 
           3083           50.23 
         3083.3           55.13 
         3083.6           61.23 
         3083.9           69.11 
         3084.2           78.96 
         3084.5           90.54 
         3084.8           103.3 
         3085.1           116.2 
         3085.4             128 
         3085.7           137.5 
           3086           144.3 
         3086.3           150.1 
         3086.6           158.3 
         3086.9           172.6 
         3087.2             195 
         3087.5           223.8 
         3087.8           253.5 
         3088.1           276.3 
         3088.4           284.7 
         3088.7           274.5 
           3089             247 
         3089.3           207.5 
         3089.6           163.8 
         3089.9           123.3 
         3090.2           90.52 
         3090.5           67.07 
         3090.8           51.97 
         3091.1           42.96 
         3091.4           37.68 
         3091.7           34.42 
           3092           32.53 
         3092.3           32.34 
         3092.6            34.8 
         3092.9           40.79 
         3093.2           50.47 
         3093.5           62.94 
         3093.8           76.45 
         3094.1           88.97 
         3094.4           98.71 
         3094.7           104.5 
           3095           106.1 
         3095.3             104 
         3095.6           100.4 
         3095.9            98.9 
         3096.2           103.8 
         3096.5           118.5 
         3096.8           143.2 
         3097.1           173.8 
         3097.4           202.2 
         3097.7           219.6 
           3098           219.8 
         3098.3           202.1 
         3098.6           171.8 
         3098.9           137.2 
         3099.2           106.7 
         3099.5            85.9 
         3099.8           76.19 
         3100.1           75.39 
         3100.4           79.31 
         3100.7           83.86 
           3101           86.93 
         3101.3           93.34 
         3101.6           102.9 
         3101.9           119.9 
         3102.2           143.8 
         3102.5           172.3 
         3102.8           201.7 
         3103.1           228.5 
         3103.4           250.1 
         3103.7           264.6 
           3104           269.6 
         3104.3           263.7 
         3104.6           246.3 
         3104.9           219.6 
         3105.2           188.1 
         3105.5           157.5 
         3105.8             133 
         3106.1           117.2 
         3106.4           110.8 
         3106.7           112.8 
           3107           121.1 
         3107.3           132.8 
         3107.6           144.4 
         3107.9           152.8 
         3108.2           156.1 
         3108.5           155.6 
         3108.8           155.1 
         3109.1           159.8 
         3109.4           173.9 
         3109.7           198.7 
           3110             232 
         3110.3             268 
         3110.6           298.8 
         3110.9           316.8 
         3111.2           317.5 
         3111.5           300.8 
         3111.8           271.5 
         3112.1           236.6 
         3112.4           203.5 
         3112.7           177.7 
           3113           162.7 
         3113.3           160.3 
         3113.6           171.3 
         3113.9           195.5 
         3114.2           231.6 
         3114.5           275.5 
         3114.8           320.4 
         3115.1           357.5 
         3115.4           378.3 
         3115.7           377.4 
           3116           355.4 
         3116.3           320.3 
         3116.6           285.3 
         3116.9           264.5 
         3117.2           267.8 
         3117.5           297.6 
         3117.8           347.5 
         3118.1           405.5 
         3118.4           457.9 
         3118.7           494.5 
           3119           511.4 
         3119.3           511.8 
         3119.6           502.4 
         3119.9           490.1 
         3120.2           476.4 
         3120.5           457.3 
         3120.8           425.8 
         3121.1           378.5 
         3121.4           319.3 
         3121.7           259.3 
           3122           211.8 
         3122.3             186 
         3122.6           183.3 
         3122.9           197.2 
         3123.2           217.5 
         3123.5           234.7 
         3123.8           244.1 
         3124.1           247.3 
         3124.4           249.1 
         3124.7           254.5 
           3125           265.1 
         3125.3           277.8 
         3125.6           287.5 
         3125.9           290.4 
         3126.2           286.1 
         3126.5           276.9 
         3126.8           264.7 
         3127.1           250.3 
         3127.4           233.4 
         3127.7           214.1 
           3128             194 
         3128.3           175.4 
         3128.6             161 
         3128.9           153.2 
         3129.2           153.6 
         3129.5           163.7 
         3129.8           184.5 
         3130.1           216.5 
         3130.4           259.2 
         3130.7           310.3 
           3131           363.4 
         3131.3           408.8 
         3131.6           435.5 
         3131.9           436.5 
         3132.2           412.4 
         3132.5           371.5 
         3132.8           325.6 
         3133.1           284.9 
         3133.4           256.1 
         3133.7           242.9 
           3134           245.4 
         3134.3           260.3 
         3134.6           280.2 
         3134.9           295.2 
         3135.2           297.9 
         3135.5           287.1 
         3135.8           268.8 
         3136.1           253.7 
         3136.4           251.4 
         3136.7           267.6 
           3137             302 
         3137.3           347.9 
         3137.6           394.6 
         3137.9           430.5 
         3138.2           447.7 
         3138.5           445.4 
         3138.8           429.9 
         3139.1           411.2 
         3139.4             399 
         3139.7           398.8 
           3140           411.8 
         3140.3           434.5 
         3140.6           459.7 
         3140.9           479.9 
         3141.2           490.4 
         3141.5             491 
         3141.8           484.6 
         3142.1           473.2 
         3142.4           456.4 
         3142.7           432.5 
           3143           403.5 
         3143.3           374.6 
         3143.6           352.1 
         3143.9           338.2 
         3144.2             330 
         3144.5           321.8 
         3144.8           308.6 
         3145.1           289.3 
         3145.4           265.5 
         3145.7           240.2 
           3146           217.3 
         3146.3           201.8 
         3146.6           200.6 
         3146.9             221 
         3147.2             268 
         3147.5           341.5 
         3147.8           433.8 
         3148.1           528.9 
         3148.4           605.5 
         3148.7           644.5 
           3149           636.8 
         3149.3           587.4 
         3149.6             513 
         3149.9             434 
         3150.2           365.3 
         3150.5           313.3 
         3150.8           276.9 
         3151.1           252.2 
         3151.4           237.2 
         3151.7           232.2 
           3152           238.5 
         3152.3           255.3 
         3152.6           278.7 
         3152.9           302.5 
         3153.2           321.5 
         3153.5             335 
         3153.8           346.8 
         3154.1             362 
         3154.4           381.9 
         3154.7           401.2 
           3155           411.6 
         3155.3             407 
         3155.6             389 
         3155.9           365.8 
         3156.2           348.3 
         3156.5           344.6 
         3156.8           356.3 
         3157.1             380 
         3157.4             409 
         3157.7           437.6 
           3158           462.4 
         3158.3           482.7 
         3158.6           497.6 
         3158.9           505.4 
         3159.2           503.3 
         3159.5           491.2 
         3159.8           474.7 
         3160.1             465 
         3160.4             473 
         3160.7           503.7 
           3161           550.4 
         3161.3           599.8 
         3161.6           639.8 
         3161.9           667.2 
         3162.2           687.6 
         3162.5           708.1 
         3162.8             731 
         3163.1           752.7 
         3163.4           768.6 
         3163.7           777.8 
           3164           782.4 
         3164.3             784 
         3164.6           781.9 
         3164.9           774.5 
         3165.2           764.7 
         3165.5           761.2 
         3165.8           778.1 
         3166.1           829.6 
         3166.4           922.6 
         3166.7            1051 
           3167            1192 
         3167.3            1312 
         3167.6            1377 
         3167.9            1368 
         3168.2            1293 
         3168.5            1184 
         3168.8            1080 
         3169.1            1007 
         3169.4             971 
         3169.7           952.1 
           3170           928.7 
         3170.3           888.3 
         3170.6           834.9 
         3170.9           784.6 
         3171.2           753.5 
         3171.5           747.8 
         3171.8             760 
         3172.1           774.2 
         3172.4           776.2 
         3172.7           762.7 
           3173           744.3 
         3173.3             739 
         3173.6           762.8 
         3173.9           821.8 
         3174.2           909.3 
         3174.5            1010 
         3174.8            1107 
         3175.1            1184 
         3175.4            1228 
         3175.7            1228 
           3176            1184 
         3176.3            1103 
         3176.6            1002 
         3176.9           906.2 
         3177.2             838 
         3177.5           814.8 
         3177.8           839.4 
         3178.1           897.5 
