# Granada HRES Library
# atmosphere = Phoenix  (atmosphere model used)
# feh = -5  (value for [Fe/H] for the model.)
# logg = 1.5 log(cm/s2) (value for Log(G) for the model.)
# teff = 4000 K (value for the effective temperature for the model. Temperatures are given in K)
#
# column 1: WAVELENGTH (ANGSTROM), Wavelength in Angstrom
# column 2: FLUX (ERG/CM2/S/A), Flux in erg/cm2/s/A
         3000.2           678.9 
         3000.5           601.1 
         3000.8           551.9 
         3001.1           527.3 
         3001.4             517 
         3001.7           509.4 
           3002           498.7 
         3002.3           490.2 
         3002.6           499.9 
         3002.9           547.8 
         3003.2           649.8 
         3003.5           811.5 
         3003.8            1025 
         3004.1            1272 
         3004.4            1525 
         3004.7            1757 
           3005            1942 
         3005.3            2062 
         3005.6            2101 
         3005.9            2052 
         3006.2            1923 
         3006.5            1734 
         3006.8            1515 
         3007.1            1304 
         3007.4            1135 
         3007.7            1031 
           3008            1005 
         3008.3            1055 
         3008.6            1173 
         3008.9            1347 
         3009.2            1564 
         3009.5            1807 
         3009.8            2041 
         3010.1            2223 
         3010.4            2310 
         3010.7            2284 
           3011            2168 
         3011.3            2022 
         3011.6            1909 
         3011.9            1876 
         3012.2            1922 
         3012.5            2012 
         3012.8            2093 
         3013.1            2124 
         3013.4            2093 
         3013.7            2015 
           3014            1923 
         3014.3            1848 
         3014.6            1813 
         3014.9            1820 
         3015.2            1859 
         3015.5            1911 
         3015.8            1956 
         3016.1            1979 
         3016.4            1970 
         3016.7            1923 
           3017            1835 
         3017.3            1717 
         3017.6            1583 
         3017.9            1447 
         3018.2            1315 
         3018.5            1182 
         3018.8            1043 
         3019.1           897.1 
         3019.4           750.5 
         3019.7           612.7 
           3020           495.6 
         3020.3           411.7 
         3020.6             373 
         3020.9             388 
         3021.2           458.9 
         3021.5           579.5 
         3021.8           734.3 
         3022.1           900.4 
         3022.4            1051 
         3022.7            1161 
           3023            1213 
         3023.3            1204 
         3023.6            1146 
         3023.9            1065 
         3024.2           983.5 
         3024.5           917.8 
         3024.8           869.3 
         3025.1           834.9 
         3025.4             815 
         3025.7           817.8 
           3026           853.7 
         3026.3           926.1 
         3026.6            1026 
         3026.9            1137 
         3027.2            1244 
         3027.5            1344 
         3027.8            1449 
         3028.1            1577 
         3028.4            1744 
         3028.7            1942 
           3029            2143 
         3029.3            2303 
         3029.6            2383 
         3029.9            2369 
         3030.2            2287 
         3030.5            2197 
         3030.8            2182 
         3031.1            2307 
         3031.4            2594 
         3031.7            2996 
           3032            3402 
         3032.3            3681 
         3032.6            3737 
         3032.9            3554 
         3033.2            3193 
         3033.5            2766 
         3033.8            2388 
         3034.1            2131 
         3034.4            2019 
         3034.7            2017 
           3035            2064 
         3035.3            2089 
         3035.6            2046 
         3035.9            1919 
         3036.2            1726 
         3036.5            1501 
         3036.8            1293 
         3037.1            1142 
         3037.4            1076 
         3037.7            1101 
           3038            1203 
         3038.3            1356 
         3038.6            1530 
         3038.9            1709 
         3039.2            1882 
         3039.5            2039 
         3039.8            2164 
         3040.1            2244 
         3040.4            2262 
         3040.7            2220 
           3041            2134 
         3041.3            2042 
         3041.6            1982 
         3041.9            1991 
         3042.2            2081 
         3042.5            2231 
         3042.8            2406 
         3043.1            2564 
         3043.4            2687 
         3043.7            2773 
           3044            2835 
         3044.3            2886 
         3044.6            2929 
         3044.9            2959 
         3045.2            2960 
         3045.5            2909 
         3045.8            2780 
         3046.1            2559 
         3046.4            2256 
         3046.7            1905 
           3047            1560 
         3047.3            1281 
         3047.6            1112 
         3047.9            1073 
         3048.2            1163 
         3048.5            1356 
         3048.8            1609 
         3049.1            1862 
         3049.4            2054 
         3049.7            2140 
           3050            2114 
         3050.3            2010 
         3050.6            1886 
         3050.9            1798 
         3051.2            1779 
         3051.5            1828 
         3051.8            1918 
         3052.1            2007 
         3052.4            2054 
         3052.7            2031 
           3053            1937 
         3053.3            1796 
         3053.6            1647 
         3053.9            1525 
         3054.2            1451 
         3054.5            1425 
         3054.8            1435 
         3055.1            1456 
         3055.4            1468 
         3055.7            1454 
           3056            1413 
         3056.3            1351 
         3056.6            1282 
         3056.9            1219 
         3057.2            1172 
         3057.5            1138 
         3057.8            1109 
         3058.1            1077 
         3058.4            1041 
         3058.7            1018 
           3059            1041 
         3059.3            1141 
         3059.6            1342 
         3059.9            1639 
         3060.2            2005 
         3060.5            2395 
         3060.8            2762 
         3061.1            3068 
         3061.4            3289 
         3061.7            3410 
           3062            3412 
         3062.3            3276 
         3062.6            2999 
         3062.9            2612 
         3063.2            2180 
         3063.5            1789 
         3063.8            1506 
         3064.1            1355 
         3064.4            1316 
         3064.7            1340 
           3065            1375 
         3065.3            1390 
         3065.6            1386 
         3065.9            1381 
         3066.2            1402 
         3066.5            1467 
         3066.8            1585 
         3067.1            1761 
         3067.4            2009 
         3067.7            2347 
           3068            2771 
         3068.3            3237 
         3068.6            3655 
         3068.9            3914 
         3069.2            3934 
         3069.5            3712 
         3069.8            3334 
         3070.1            2938 
         3070.4            2658 
         3070.7            2574 
           3071            2696 
         3071.3            2979 
         3071.6            3347 
         3071.9            3725 
         3072.2            4047 
         3072.5            4268 
         3072.8            4366 
         3073.1            4350 
         3073.4            4256 
         3073.7            4129 
           3074            4005 
         3074.3            3906 
         3074.6            3851 
         3074.9            3882 
         3075.2            4066 
         3075.5            4455 
         3075.8            5036 
         3076.1            5695 
         3076.4            6246 
         3076.7            6511 
           3077            6408 
         3077.3            5986 
         3077.6            5390 
         3077.9            4787 
         3078.2            4298 
         3078.5            3965 
         3078.8            3759 
         3079.1            3613 
         3079.4            3459 
         3079.7            3253 
           3080            2984 
         3080.3            2668 
         3080.6            2342 
         3080.9            2056 
         3081.2            1858 
         3081.5            1781 
         3081.8            1831 
         3082.1            1976 
         3082.4            2156 
         3082.7            2307 
           3083            2391 
         3083.3            2417 
         3083.6            2436 
         3083.9            2508 
         3084.2            2673 
         3084.5            2932 
         3084.8            3249 
         3085.1            3567 
         3085.4            3828 
         3085.7            4003 
           3086            4109 
         3086.3            4213 
         3086.6            4399 
         3086.9            4737 
         3087.2            5247 
         3087.5            5885 
         3087.8            6537 
         3088.1            7037 
         3088.4            7214 
         3088.7            6966 
           3089            6322 
         3089.3            5441 
         3089.6            4540 
         3089.9            3790 
         3090.2            3248 
         3090.5            2868 
         3090.8            2559 
         3091.1            2257 
         3091.4            1948 
         3091.7            1662 
           3092            1447 
         3092.3            1342 
         3092.6            1370 
         3092.9            1523 
         3093.2            1766 
         3093.5            2043 
         3093.8            2294 
         3094.1            2478 
         3094.4            2580 
         3094.7            2606 
           3095            2574 
         3095.3            2508 
         3095.6            2439 
         3095.9            2422 
         3096.2            2538 
         3096.5            2872 
         3096.8            3465 
         3097.1            4268 
         3097.4            5119 
         3097.7            5780 
           3098            6032 
         3098.3            5775 
         3098.6            5073 
         3098.9            4122 
         3099.2            3160 
         3099.5            2371 
         3099.8            1842 
         3100.1            1563 
         3100.4            1466 
         3100.7            1479 
           3101            1568 
         3101.3            2095 
         3101.6            2669 
         3101.9            3498 
         3102.2            4520 
         3102.5            5599 
         3102.8            6570 
         3103.1            7324 
         3103.4            7834 
         3103.7            8134 
           3104            8246 
         3104.3            8129 
         3104.6            7706 
         3104.9            6942 
         3105.2            5909 
         3105.5            4777 
         3105.8            3745 
         3106.1            2966 
         3106.4            2507 
         3106.7            2357 
           3107            2457 
         3107.3            2727 
         3107.6            3079 
         3107.9            3432 
         3108.2            3716 
         3108.5            3888 
         3108.8            3953 
         3109.1            3972 
         3109.4            4065 
         3109.7            4372 
           3110            4997 
         3110.3            5934 
         3110.6            7036 
         3110.9            8034 
         3111.2            8633 
         3111.5            8643 
         3111.8            8061 
         3112.1            7070 
         3112.4            5951 
         3112.7            4978 
           3113            4353 
         3113.3            4180 
         3113.6            4483 
         3113.9            5222 
         3114.2            6300 
         3114.5            7570 
         3114.8            8841 
         3115.1            9887 
         3115.4           10490 
         3115.7           10460 
           3116            9780 
         3116.3            8598 
         3116.6            7205 
         3116.9            5931 
         3117.2            5027 
         3117.5            4581 
         3117.8            4523 
         3118.1            4685 
         3118.4            4896 
         3118.7            5038 
           3119            5084 
         3119.3            5082 
         3119.6            5119 
         3119.9            5254 
         3120.2            5464 
         3120.5            5642 
         3120.8            5653 
         3121.1            5429 
         3121.4            5033 
         3121.7            4660 
           3122            4547 
         3122.3            4871 
         3122.6            5651 
         3122.9            6734 
         3123.2            7840 
         3123.5            8688 
         3123.8            9107 
         3124.1            9107 
         3124.4            8852 
         3124.7            8558 
           3125            8374 
         3125.3            8325 
         3125.6            8339 
         3125.9            8326 
         3126.2            8240 
         3126.5            8066 
         3126.8            7789 
         3127.1            7377 
         3127.4            6806 
         3127.7            6103 
           3128            5345 
         3128.3            4639 
         3128.6            4082 
         3128.9            3719 
         3129.2            3541 
         3129.5            3499 
         3129.8            3542 
         3130.1            3658 
         3130.4            3870 
         3130.7            4213 
           3131            4675 
         3131.3            5166 
         3131.6            5542 
         3131.9            5669 
         3132.2            5496 
         3132.5            5084 
         3132.8            4592 
         3133.1            4218 
         3133.4            4150 
         3133.7            4502 
           3134            5269 
         3134.3            6290 
         3134.6            7268 
         3134.9            7879 
         3135.2            7928 
         3135.5            7447 
         3135.8            6680 
         3136.1            5967 
         3136.4            5592 
         3136.7            5712 
           3137            6343 
         3137.3            7383 
         3137.6            8650 
         3137.9            9925 
         3138.2           10990 
         3138.5           11700 
         3138.8           11980 
         3139.1           11890 
         3139.4           11560 
         3139.7           11220 
           3140           11050 
         3140.3           11100 
         3140.6           11320 
         3140.9           11560 
         3141.2           11720 
         3141.5           11790 
         3141.8           11800 
         3142.1           11710 
         3142.4           11380 
         3142.7           10700 
           3143            9639 
         3143.3            8374 
         3143.6            7138 
         3143.9            6127 
         3144.2            5408 
         3144.5            4948 
         3144.8            4680 
         3145.1            4549 
         3145.4            4525 
         3145.7            4577 
           3146            4690 
         3146.3            4865 
         3146.6            5139 
         3146.9            5585 
         3147.2            6312 
         3147.5            7465 
         3147.8            9158 
         3148.1           11400 
         3148.4           13970 
         3148.7           16510 
           3149           18570 
         3149.3           19820 
         3149.6           20230 
         3149.9           19860 
         3150.2           18850 
         3150.5           17310 
         3150.8           15350 
         3151.1           13150 
         3151.4           10910 
         3151.7            8844 
           3152            7105 
         3152.3            5764 
         3152.6            4819 
         3152.9            4238 
         3153.2            3993 
         3153.5            4084 
         3153.8            4523 
         3154.1            5280 
         3154.4            6222 
         3154.7            7121 
           3155            7723 
         3155.3            7870 
         3155.6            7579 
         3155.9            7021 
         3156.2            6417 
         3156.5            5946 
         3156.8            5692 
         3157.1            5655 
         3157.4            5799 
         3157.7            6080 
           3158            6477 
         3158.3            6973 
         3158.6            7526 
         3158.9            8036 
         3159.2            8347 
         3159.5            8323 
         3159.8            7918 
         3160.1            7242 
         3160.4            6519 
         3160.7            6003 
           3161            5906 
         3161.3            6381 
         3161.6            7520 
         3161.9            9343 
         3162.2           11710 
         3162.5           14280 
         3162.8           16490 
         3163.1           17790 
         3163.4           17880 
         3163.7           16840 
           3164           15090 
         3164.3           13120 
         3164.6           11330 
         3164.9            9950 
         3165.2            9066 
         3165.5            8735 
         3165.8            9017 
         3166.1            9951 
         3166.4           11500 
         3166.7           13500 
           3167           15580 
         3167.3           17320 
         3167.6           18270 
         3167.9           18230 
         3168.2           17340 
         3168.5           16010 
         3168.8           14790 
         3169.1           14030 
         3169.4           13880 
         3169.7           14240 
           3170           14920 
         3170.3           15800 
         3170.6           16850 
         3170.9           18170 
         3171.2           19840 
         3171.5           21750 
         3171.8           23560 
         3172.1           24820 
         3172.4           25250 
         3172.7           25020 
           3173           24780 
         3173.3           25260 
         3173.6           26900 
         3173.9           29530 
         3174.2           32630 
         3174.5           35680 
         3174.8           38470 
         3175.1           40980 
         3175.4           43080 
         3175.7           44360 
           3176           44240 
         3176.3           42370 
         3176.6           38890 
         3176.9           34460 
         3177.2           30050 
         3177.5           26550 
         3177.8           24340 
         3178.1           23180 
