# Granada HRES Library
# atmosphere = Spectrum  (atmosphere model used)
# feh = -5  (value for [Fe/H] for the model.)
# logg = 1 log(cm/s2) (value for Log(G) for the model.)
# teff = 4750 K (value for the effective temperature for the model. Temperatures are given in K)
#
# column 1: WAVELENGTH (ANGSTROM), Wavelength in Angstrom
# column 2: FLUX (ERG/CM2/S/A), Flux in erg/cm2/s/A
         3000.2           14420 
         3000.5           15050 
         3000.8           15970 
         3001.1           17280 
         3001.4           19000 
         3001.7           21370 
           3002           24660 
         3002.3           29300 
         3002.6           35780 
         3002.9           44590 
         3003.2           56030 
         3003.5           70040 
         3003.8           86080 
         3004.1          103100 
         3004.4          119600 
         3004.7          133800 
           3005          144200 
         3005.3          149300 
         3005.6          148700 
         3005.9          142100 
         3006.2          130600 
         3006.5          115500 
         3006.8           98630 
         3007.1           82000 
         3007.4           67450 
         3007.7           56350 
           3008           49670 
         3008.3           47840 
         3008.6           50880 
         3008.9           58410 
         3009.2           69680 
         3009.5           83550 
         3009.8           98490 
         3010.1          112800 
         3010.4          124900 
         3010.7          133500 
           3011          138300 
         3011.3          139600 
         3011.6          138500 
         3011.9          136300 
         3012.2          134200 
         3012.5          132800 
         3012.8          132200 
         3013.1          132000 
         3013.4          131700 
         3013.7          130900 
           3014          129300 
         3014.3          126600 
         3014.6          123000 
         3014.9          118200 
         3015.2          112500 
         3015.5          106000 
         3015.8           98590 
         3016.1           90570 
         3016.4           82020 
         3016.7           73160 
           3017           64260 
         3017.3           55590 
         3017.6           47430 
         3017.9           39990 
         3018.2           33420 
         3018.5           27690 
         3018.8           22810 
         3019.1           18650 
         3019.4           15190 
         3019.7           12430 
           3020           10420 
         3020.3            9258 
         3020.6            9049 
         3020.9            9915 
         3021.2           11850 
         3021.5           14790 
         3021.8           18560 
         3022.1           22890 
         3022.4           27450 
         3022.7           31860 
           3023           35800 
         3023.3           39040 
         3023.6           41400 
         3023.9           42860 
         3024.2           43520 
         3024.5           43710 
         3024.8           44020 
         3025.1           45230 
         3025.4           48260 
         3025.7           54120 
           3026           63510 
         3026.3           76590 
         3026.6           92920 
         3026.9          111400 
         3027.2          130400 
         3027.5          148200 
         3027.8          163100 
         3028.1          173800 
         3028.4          179800 
         3028.7          181000 
           3029          178100 
         3029.3          172100 
         3029.6          164500 
         3029.9          156500 
         3030.2          149400 
         3030.5          144200 
         3030.8          141800 
         3031.1          143000 
         3031.4          148100 
         3031.7          157000 
           3032          168700 
         3032.3          181900 
         3032.6          195000 
         3032.9          206700 
         3033.2          216200 
         3033.5          223000 
         3033.8          227000 
         3034.1          228400 
         3034.4          226800 
         3034.7          221900 
           3035          213000 
         3035.3          199600 
         3035.6          182000 
         3035.9          160800 
         3036.2          137700 
         3036.5          114800 
         3036.8           94540 
         3037.1           78990 
         3037.4           69550 
         3037.7           66690 
           3038           70050 
         3038.3           78380 
         3038.6           89880 
         3038.9          102500 
         3039.2          114200 
         3039.5          123700 
         3039.8          129700 
         3040.1          132200 
         3040.4          131200 
         3040.7          127800 
           3041          123100 
         3041.3          118400 
         3041.6          115300 
         3041.9          114900 
         3042.2          117800 
         3042.5          123800 
         3042.8          132100 
         3043.1          141200 
         3043.4          149500 
         3043.7          155700 
           3044          158900 
         3044.3          158900 
         3044.6          155800 
         3044.9          150000 
         3045.2          141700 
         3045.5          131400 
         3045.8          119500 
         3046.1          106300 
         3046.4           92770 
         3046.7           80140 
           3047           69720 
         3047.3           62870 
         3047.6           60580 
         3047.9           63160 
         3048.2           70130 
         3048.5           80260 
         3048.8           91990 
         3049.1          103600 
         3049.4          114100 
         3049.7          123100 
           3050          131400 
         3050.3          140500 
         3050.6          151700 
         3050.9          165800 
         3051.2          182200 
         3051.5          199000 
         3051.8          213400 
         3052.1          222600 
         3052.4          224600 
         3052.7          218800 
           3053          206600 
         3053.3          190500 
         3053.6          173900 
         3053.9          159700 
         3054.2          149800 
         3054.5          145000 
         3054.8          144100 
         3055.1          145200 
         3055.4          145700 
         3055.7          143500 
           3056          137100 
         3056.3          126200 
         3056.6          111700 
         3056.9           95190 
         3057.2           78540 
         3057.5           63570 
         3057.8           51630 
         3058.1           43620 
         3058.4           40010 
         3058.7           41150 
           3059           47100 
         3059.3           57890 
         3059.6           73150 
         3059.9           92170 
         3060.2          113700 
         3060.5          136000 
         3060.8          157100 
         3061.1          175100 
         3061.4          188300 
         3061.7          195700 
           3062          196900 
         3062.3          192100 
         3062.6          182600 
         3062.9          169800 
         3063.2          155800 
         3063.5          142300 
         3063.8          131000 
         3064.1          122700 
         3064.4          117300 
         3064.7          114000 
           3065          111600 
         3065.3          108800 
         3065.6          104700 
         3065.9           99230 
         3066.2           93320 
         3066.5           88450 
         3066.8           86530 
         3067.1           89410 
         3067.4           98020 
         3067.7          112700 
           3068          132300 
         3068.3          155300 
         3068.6          179300 
         3068.9          201800 
         3069.2          220700 
         3069.5          234900 
         3069.8          243700 
         3070.1          247400 
         3070.4          246800 
         3070.7          242700 
           3071          235800 
         3071.3          227100 
         3071.6          217500 
         3071.9          208500 
         3072.2          201200 
         3072.5          196700 
         3072.8          195400 
         3073.1          196300 
         3073.4          198200 
         3073.7          199200 
           3074          198000 
         3074.3          194100 
         3074.6          188500 
         3074.9          183000 
         3075.2          179900 
         3075.5          180900 
         3075.8          186700 
         3076.1          196300 
         3076.4          207500 
         3076.7          217700 
           3077          224400 
         3077.3          226700 
         3077.6          224500 
         3077.9          219500 
         3078.2          213700 
         3078.5          209100 
         3078.8          207000 
         3079.1          207600 
         3079.4          209900 
         3079.7          212500 
           3080          213700 
         3080.3          212500 
         3080.6          208500 
         3080.9          202000 
         3081.2          194200 
         3081.5          186100 
         3081.8          179200 
         3082.1          174500 
         3082.4          172800 
         3082.7          174900 
           3083          181300 
         3083.3          192500 
         3083.6          208800 
         3083.9          229400 
         3084.2          253200 
         3084.5          277800 
         3084.8          300300 
         3085.1          317600 
         3085.4          326900 
         3085.7          326600 
           3086          316200 
         3086.3          297200 
         3086.6          272400 
         3086.9          245200 
         3087.2          219600 
         3087.5          198500 
         3087.8          183500 
         3088.1          174800 
         3088.4          171100 
         3088.7          170500 
           3089          170700 
         3089.3          170100 
         3089.6          168000 
         3089.9          164600 
         3090.2          160600 
         3090.5          156800 
         3090.8          153600 
         3091.1          151200 
         3091.4          149100 
         3091.7          146800 
           3092          143700 
         3092.3          140100 
         3092.6          136500 
         3092.9          134100 
         3093.2          134200 
         3093.5          137300 
         3093.8          143400 
         3094.1          151200 
         3094.4          159300 
         3094.7          165800 
           3095          169300 
         3095.3          169500 
         3095.6          166800 
         3095.9          162500 
         3096.2          158100 
         3096.5          155100 
         3096.8          154000 
         3097.1          154500 
         3097.4          155300 
         3097.7          154500 
           3098          150400 
         3098.3          142000 
         3098.6          129100 
         3098.9          113100 
         3099.2           95530 
         3099.5           78610 
         3099.8           64210 
         3100.1           53760 
         3100.4           48150 
         3100.7           47820 
           3101           53000 
         3101.3           63630 
         3101.6           79410 
         3101.9           99510 
         3102.2          122600 
         3102.5          146900 
         3102.8          170300 
         3103.1          190600 
         3103.4          206400 
         3103.7          216600 
           3104          221400 
         3104.3          221400 
         3104.6          218400 
         3104.9          214400 
         3105.2          211700 
         3105.5          212000 
         3105.8          216500 
         3106.1          225400 
         3106.4          237800 
         3106.7          252300 
           3107          267200 
         3107.3          280800 
         3107.6          291700 
         3107.9          299100 
         3108.2          302400 
         3108.5          301500 
         3108.8          297100 
         3109.1          290000 
         3109.4          281900 
         3109.7          274900 
           3110          270900 
         3110.3          271500 
         3110.6          276900 
         3110.9          286400 
         3111.2          297900 
         3111.5          309000 
         3111.8          316900 
         3112.1          319800 
         3112.4          316600 
         3112.7          308000 
           3113          295400 
         3113.3          281100 
         3113.6          267800 
         3113.9          257600 
         3114.2          251800 
         3114.5          250400 
         3114.8          252400 
         3115.1          255500 
         3115.4          257800 
         3115.7          257300 
           3116          252800 
         3116.3          244000 
         3116.6          231700 
         3116.9          217300 
         3117.2          202200 
         3117.5          187900 
         3117.8          175400 
         3118.1          165700 
         3118.4          158800 
         3118.7          155000 
           3119          154000 
         3119.3          155500 
         3119.6          159300 
         3119.9          164900 
         3120.2          171400 
         3120.5          177600 
         3120.8          182400 
         3121.1          184500 
         3121.4          184100 
         3121.7          181700 
           3122          178900 
         3122.3          177500 
         3122.6          178700 
         3122.9          183200 
         3123.2          190400 
         3123.5          198900 
         3123.8          206700 
         3124.1          211900 
         3124.4          213800 
         3124.7          212600 
           3125          209800 
         3125.3          207700 
         3125.6          208200 
         3125.9          212600 
         3126.2          220900 
         3126.5          231600 
         3126.8          242700 
         3127.1          251800 
         3127.4          257300 
         3127.7          258200 
           3128          254900 
         3128.3          248300 
         3128.6          240200 
         3128.9          231700 
         3129.2          224000 
         3129.5          217300 
         3129.8          211800 
         3130.1          207700 
         3130.4          204800 
         3130.7          203000 
           3131          201900 
         3131.3          201000 
         3131.6          199400 
         3131.9          196400 
         3132.2          191700 
         3132.5          185500 
         3132.8          178500 
         3133.1          171900 
         3133.4          167500 
         3133.7          166600 
           3134          170200 
         3134.3          178400 
         3134.6          190200 
         3134.9          203600 
         3135.2          216600 
         3135.5          227300 
         3135.8          234600 
         3136.1          238700 
         3136.4          240300 
         3136.7          240500 
           3137          240100 
         3137.3          239700 
         3137.6          239200 
         3137.9          238700 
         3138.2          238100 
         3138.5          238000 
         3138.8          239000 
         3139.1          241700 
         3139.4          246800 
         3139.7          254200 
           3140          263500 
         3140.3          273700 
         3140.6          283000 
         3140.9          289400 
         3141.2          291100 
         3141.5          286800 
         3141.8          276000 
         3142.1          259200 
         3142.4          237400 
         3142.7          212300 
           3143          185800 
         3143.3          160100 
         3143.6          137000 
         3143.9          118400 
         3144.2          105200 
         3144.5           98100 
         3144.8           96760 
         3145.1          100200 
         3145.4          107100 
         3145.7          115900 
           3146          125200 
         3146.3          134500 
         3146.6          143800 
         3146.9          154000 
         3147.2          165800 
         3147.5          180000 
         3147.8          196900 
         3148.1          215400 
         3148.4          234500 
         3148.7          252600 
           3149          268500 
         3149.3          281500 
         3149.6          291400 
         3149.9          298600 
         3150.2          303200 
         3150.5          305300 
         3150.8          304900 
         3151.1          302100 
         3151.4          297600 
         3151.7          292400 
           3152          287800 
         3152.3          284900 
         3152.6          283800 
         3152.9          284100 
         3153.2          284700 
         3153.5          284300 
         3153.8          282000 
         3154.1          277700 
         3154.4          271700 
         3154.7          264600 
           3155          256900 
         3155.3          248600 
         3155.6          239200 
         3155.9          228100 
         3156.2          214900 
         3156.5          199900 
         3156.8          183700 
         3157.1          167800 
         3157.4          153500 
         3157.7          142000 
           3158          134200 
         3158.3          130100 
         3158.6          129100 
         3158.9          130000 
         3159.2          131700 
         3159.5          132900 
         3159.8          132600 
         3160.1          130700 
         3160.4          127500 
         3160.7          124100 
           3161          121900 
         3161.3          122200 
         3161.6          126100 
         3161.9          133900 
         3162.2          145000 
         3162.5          158300 
         3162.8          171900 
         3163.1          184000 
         3163.4          192800 
         3163.7          197600 
           3164          198500 
         3164.3          196800 
         3164.6          194000 
         3164.9          192400 
         3165.2          193100 
         3165.5          197000 
         3165.8          203800 
         3166.1          212200 
         3166.4          220600 
         3166.7          227000 
           3167          230000 
         3167.3          228900 
         3167.6          224100 
         3167.9          217100 
         3168.2          210400 
         3168.5          206400 
         3168.8          207300 
         3169.1          213900 
         3169.4          226000 
         3169.7          242100 
           3170          260400 
         3170.3          278800 
         3170.6          295900 
         3170.9          311100 
         3171.2          324200 
         3171.5          335200 
         3171.8          344000 
         3172.1          350200 
         3172.4          352900 
         3172.7          351500 
           3173          346000 
         3173.3          337200 
         3173.6          326700 
         3173.9          316500 
         3174.2          308900 
         3174.5          305600 
         3174.8          307600 
         3175.1          314900 
         3175.4          326300 
         3175.7          339600 
           3176          352000 
         3176.3          360900 
         3176.6          364200 
         3176.9          361000 
         3177.2          351800 
         3177.5          337600 
         3177.8          320200 
         3178.1          301000 
