# Granada HRES Library
# atmosphere = Phoenix  (atmosphere model used)
# feh = 0  (value for [Fe/H] for the model.)
# logg = 3.5 log(cm/s2) (value for Log(G) for the model.)
# teff = 4500 K (value for the effective temperature for the model. Temperatures are given in K)
#
# column 1: WAVELENGTH (ANGSTROM), Wavelength in Angstrom
# column 2: FLUX (ERG/CM2/S/A), Flux in erg/cm2/s/A
         3000.2           11380 
         3000.5           10670 
         3000.8           10160 
         3001.1            9849 
         3001.4            9638 
         3001.7            9400 
           3002            9089 
         3002.3            8815 
         3002.6            8832 
         3002.9            9427 
         3003.2           10790 
         3003.5           12940 
         3003.8           15700 
         3004.1           18740 
         3004.4           21740 
         3004.7           24350 
           3005           26330 
         3005.3           27480 
         3005.6           27670 
         3005.9           26850 
         3006.2           25120 
         3006.5           22730 
         3006.8           20050 
         3007.1           17540 
         3007.4           15570 
         3007.7           14380 
           3008           14080 
         3008.3           14600 
         3008.6           15780 
         3008.9           17460 
         3009.2           19470 
         3009.5           21670 
         3009.8           23780 
         3010.1           25460 
         3010.4           26350 
         3010.7           26280 
           3011           25460 
         3011.3           24400 
         3011.6           23700 
         3011.9           23750 
         3012.2           24570 
         3012.5           25790 
         3012.8           26870 
         3013.1           27390 
         3013.4           27190 
         3013.7           26390 
           3014           25260 
         3014.3           24100 
         3014.6           23120 
         3014.9           22460 
         3015.2           22100 
         3015.5           22010 
         3015.8           22130 
         3016.1           22370 
         3016.4           22570 
         3016.7           22570 
           3017           22210 
         3017.3           21480 
         3017.6           20470 
         3017.9           19310 
         3018.2           18050 
         3018.5           16700 
         3018.8           15210 
         3019.1           13570 
         3019.4           11830 
         3019.7           10080 
           3020            8501 
         3020.3            7293 
         3020.6            6694 
         3020.9            6884 
         3021.2            7916 
         3021.5            9679 
         3021.8           11910 
         3022.1           14230 
         3022.4           16250 
         3022.7           17630 
           3023           18160 
         3023.3           17930 
         3023.6           17140 
         3023.9           16160 
         3024.2           15310 
         3024.5           14690 
         3024.8           14240 
         3025.1           13870 
         3025.4           13590 
         3025.7           13600 
           3026           14170 
         3026.3           15480 
         3026.6           17490 
         3026.9           19920 
         3027.2           22490 
         3027.5           24930 
         3027.8           27070 
         3028.1           28860 
         3028.4           30260 
         3028.7           31170 
           3029           31460 
         3029.3           31040 
         3029.6           29880 
         3029.9           28160 
         3030.2           26230 
         3030.5           24660 
         3030.8           24130 
         3031.1           25220 
         3031.4           28160 
         3031.7           32580 
           3032           37510 
         3032.3           41640 
         3032.6           43840 
         3032.9           43580 
         3033.2           41130 
         3033.5           37380 
         3033.8           33480 
         3034.1           30410 
         3034.4           28650 
         3034.7           28060 
           3035           28090 
         3035.3           27990 
         3035.6           27220 
         3035.9           25550 
         3036.2           23160 
         3036.5           20430 
         3036.8           17870 
         3037.1           15960 
         3037.4           15010 
         3037.7           15100 
           3038           16080 
         3038.3           17640 
         3038.6           19450 
         3038.9           21280 
         3039.2           22940 
         3039.5           24280 
         3039.8           25120 
         3040.1           25320 
         3040.4           24840 
         3040.7           23750 
           3041           22280 
         3041.3           20790 
         3041.6           19730 
         3041.9           19480 
         3042.2           20280 
         3042.5           22110 
         3042.8           24700 
         3043.1           27670 
         3043.4           30640 
         3043.7           33290 
           3044           35330 
         3044.3           36600 
         3044.6           37020 
         3044.9           36660 
         3045.2           35650 
         3045.5           34080 
         3045.8           31980 
         3046.1           29290 
         3046.4           26100 
         3046.7           22660 
           3047           19430 
         3047.3           16950 
         3047.6           15610 
         3047.9           15610 
         3048.2           16890 
         3048.5           19140 
         3048.8           21870 
         3049.1           24470 
         3049.4           26360 
         3049.7           27170 
           3050           26920 
         3050.3           26070 
         3050.6           25290 
         3050.9           25170 
         3051.2           26000 
         3051.5           27630 
         3051.8           29580 
         3052.1           31210 
         3052.4           31930 
         3052.7           31410 
           3053           29740 
         3053.3           27320 
         3053.6           24760 
         3053.9           22650 
         3054.2           21340 
         3054.5           20950 
         3054.8           21350 
         3055.1           22250 
         3055.4           23210 
         3055.7           23830 
           3056           23790 
         3056.3           23020 
         3056.6           21660 
         3056.9           20010 
         3057.2           18390 
         3057.5           17010 
         3057.8           15960 
         3058.1           15170 
         3058.4           14620 
         3058.7           14430 
           3059           14870 
         3059.3           16250 
         3059.6           18760 
         3059.9           22330 
         3060.2           26630 
         3060.5           31190 
         3060.8           35550 
         3061.1           39370 
         3061.4           42480 
         3061.7           44720 
           3062           45870 
         3062.3           45500 
         3062.6           43310 
         3062.9           39330 
         3063.2           34200 
         3063.5           28980 
         3063.8           24740 
         3064.1           22160 
         3064.4           21330 
         3064.7           21800 
           3065           22790 
         3065.3           23560 
         3065.6           23630 
         3065.9           22930 
         3066.2           21790 
         3066.5           20710 
         3066.8           20250 
         3067.1           20850 
         3067.4           22820 
         3067.7           26300 
           3068           31120 
         3068.3           36660 
         3068.6           41920 
         3068.9           45740 
         3069.2           47300 
         3069.5           46560 
         3069.8           44400 
         3070.1           42210 
         3070.4           41270 
         3070.7           42220 
           3071           44890 
         3071.3           48490 
         3071.6           52140 
         3071.9           55170 
         3072.2           57220 
         3072.5           58100 
         3072.8           57760 
         3073.1           56310 
         3073.4           54120 
         3073.7           51690 
           3074           49460 
         3074.3           47620 
         3074.6           46210 
         3074.9           45410 
         3075.2           45730 
         3075.5           47850 
         3075.8           52050 
         3076.1           57690 
         3076.4           63250 
         3076.7           66900 
           3077           67380 
         3077.3           64710 
         3077.6           60050 
         3077.9           55210 
         3078.2           51740 
         3078.5           50320 
         3078.8           50600 
         3079.1           51500 
         3079.4           51740 
         3079.7           50410 
           3080           47170 
         3080.3           42340 
         3080.6           36670 
         3080.9           31110 
         3081.2           26530 
         3081.5           23500 
         3081.8           22200 
         3082.1           22390 
         3082.4           23600 
         3082.7           25350 
           3083           27360 
         3083.3           29700 
         3083.6           32630 
         3083.9           36340 
         3084.2           40750 
         3084.5           45450 
         3084.8           49830 
         3085.1           53250 
         3085.4           55190 
         3085.7           55510 
           3086           54600 
         3086.3           53370 
         3086.6           52910 
         3086.9           54100 
         3087.2           57240 
         3087.5           61930 
         3087.8           67120 
         3088.1           71230 
         3088.4           72680 
         3088.7           70420 
           3089           64580 
         3089.3           56450 
         3089.6           47910 
         3089.9           40500 
         3090.2           34870 
         3090.5           30710 
         3090.8           27340 
         3091.1           24190 
         3091.4           21060 
         3091.7           18150 
           3092           15800 
         3092.3           14420 
         3092.6           14320 
         3092.9           15620 
         3093.2           18140 
         3093.5           21470 
         3093.8           25040 
         3094.1           28270 
         3094.4           30720 
         3094.7           32090 
           3095           32290 
         3095.3           31430 
         3095.6           29860 
         3095.9           28120 
         3096.2           26920 
         3096.5           26960 
         3096.8           28620 
         3097.1           31760 
         3097.4           35570 
         3097.7           38780 
           3098           40130 
         3098.3           38930 
         3098.6           35330 
         3098.9           30280 
         3099.2           25020 
         3099.5           20660 
         3099.8           17800 
         3100.1           16490 
         3100.4           16370 
         3100.7           17000 
           3101           18110 
         3101.3           22510 
         3101.6           26780 
         3101.9           32800 
         3102.2           40230 
         3102.5           48190 
         3102.8           55690 
         3103.1           62040 
         3103.4           67000 
         3103.7           70590 
           3104           72590 
         3104.3           72400 
         3104.6           69420 
         3104.9           63610 
         3105.2           55900 
         3105.5           47820 
         3105.8           41050 
         3106.1           36640 
         3106.4           34890 
         3106.7           35380 
           3107           37330 
         3107.3           39880 
         3107.6           42290 
         3107.9           44030 
         3108.2           44950 
         3108.5           45220 
         3108.8           45300 
         3109.1           45890 
         3109.4           47800 
         3109.7           51830 
           3110           58500 
         3110.3           67800 
         3110.6           78950 
         3110.9           90380 
         3111.2          100200 
         3111.5          106400 
         3111.8          108000 
         3112.1          105100 
         3112.4           98060 
         3112.7           89100 
           3113           80660 
         3113.3           75440 
         3113.6           75470 
         3113.9           81470 
         3114.2           92420 
         3114.5          105900 
         3114.8          118500 
         3115.1          127200 
         3115.4          129300 
         3115.7          124200 
           3116          112500 
         3116.3           96890 
         3116.6           80710 
         3116.9           67090 
         3117.2           57920 
         3117.5           53400 
         3117.8           52310 
         3118.1           52840 
         3118.4           53450 
         3118.7           53410 
           3119           52980 
         3119.3           53120 
         3119.6           54830 
         3119.9           58450 
         3120.2           63110 
         3120.5           67040 
         3120.8           68280 
         3121.1           65970 
         3121.4           60790 
         3121.7           54850 
           3122           50730 
         3122.3           50460 
         3122.6           54770 
         3122.9           62890 
         3123.2           72800 
         3123.5           81880 
         3123.8           87930 
         3124.1           89940 
         3124.4           88490 
         3124.7           85390 
           3125           82810 
         3125.3           82440 
         3125.6           84910 
         3125.9           89770 
         3126.2           95490 
         3126.5           99800 
         3126.8          100600 
         3127.1           96310 
         3127.4           87530 
         3127.7           76330 
           3128           65650 
         3128.3           57910 
         3128.6           54200 
         3128.9           54060 
         3129.2           55930 
         3129.5           57970 
         3129.8           58910 
         3130.1           58470 
         3130.4           57190 
         3130.7           55990 
           3131           55480 
         3131.3           55610 
         3131.6           55760 
         3131.9           55080 
         3132.2           53030 
         3132.5           49650 
         3132.8           45630 
         3133.1           42210 
         3133.4           40820 
         3133.7           42630 
           3134           48030 
         3134.3           56090 
         3134.6           64720 
         3134.9           71350 
         3135.2           74200 
         3135.5           73130 
         3135.8           69630 
         3136.1           65980 
         3136.4           64270 
         3136.7           65720 
           3137           70670 
         3137.3           78810 
         3137.6           89400 
         3137.9          101300 
         3138.2          113000 
         3138.5          122600 
         3138.8          128700 
         3139.1          130400 
         3139.4          128000 
         3139.7          123000 
           3140          117500 
         3140.3          112700 
         3140.6          108900 
         3140.9          104900 
         3141.2          100100 
         3141.5           94380 
         3141.8           88470 
         3142.1           83090 
         3142.4           78170 
         3142.7           73070 
           3143           67260 
         3143.3           60970 
         3143.6           55130 
         3143.9           50940 
         3144.2           49350 
         3144.5           50820 
         3144.8           55340 
         3145.1           62210 
         3145.4           69830 
         3145.7           76070 
           3146           79060 
         3146.3           78200 
         3146.6           74780 
         3146.9           71610 
         3147.2           72070 
         3147.5           78970 
         3147.8           93500 
         3148.1          114600 
         3148.4          138800 
         3148.7          161200 
           3149          177200 
         3149.3          184100 
         3149.6          182000 
         3149.9          172900 
         3150.2          159600 
         3150.5          144700 
         3150.8          129900 
         3151.1          115800 
         3151.4          102800 
         3151.7           91520 
           3152           82180 
         3152.3           75120 
         3152.6           70380 
         3152.9           67600 
         3153.2           66330 
         3153.5           66400 
         3153.8           68190 
         3154.1           72190 
         3154.4           78210 
         3154.7           84840 
           3155           89790 
         3155.3           91050 
         3155.6           88060 
         3155.9           81870 
         3156.2           74590 
         3156.5           68270 
         3156.8           64240 
         3157.1           62800 
         3157.4           63480 
         3157.7           65500 
           3158           68160 
         3158.3           70960 
         3158.6           73570 
         3158.9           75490 
         3159.2           76030 
         3159.5           74570 
         3159.8           71030 
         3160.1           66090 
         3160.4           61170 
         3160.7           57950 
           3161           58000 
         3161.3           62590 
         3161.6           72480 
         3161.9           87520 
         3162.2          106100 
         3162.5          124900 
         3162.8          139500 
         3163.1          145800 
         3163.4          142200 
         3163.7          130100 
           3164          113300 
         3164.3           96490 
         3164.6           82960 
         3164.9           74520 
         3165.2           71690 
         3165.5           74220 
         3165.8           81540 
         3166.1           92620 
         3166.4          105800 
         3166.7          119000 
           3167          129800 
         3167.3          135900 
         3167.6          136300 
         3167.9          131300 
         3168.2          123100 
         3168.5          114900 
         3168.8          109800 
         3169.1          110000 
         3169.4          115600 
         3169.7          125500 
           3170          138100 
         3170.3          151600 
         3170.6          165000 
         3170.9          178400 
         3171.2          192200 
         3171.5          206000 
         3171.8          218000 
         3172.1          225400 
         3172.4          226900 
         3172.7          224200 
           3173          221600 
         3173.3          224200 
         3173.6          233800 
         3173.9          248600 
         3174.2          264500 
         3174.5          278300 
         3174.8          289800 
         3175.1          301000 
         3175.4          312800 
         3175.7          322900 
           3176          326400 
         3176.3          318500 
         3176.6          297300 
         3176.9          265700 
         3177.2          230300 
         3177.5          198500 
         3177.8          175400 
         3178.1          161800 
