# Granada HRES Library
# atmosphere = Spectrum  (atmosphere model used)
# feh = 3  (value for [Fe/H] for the model.)
# logg = 1 log(cm/s2) (value for Log(G) for the model.)
# teff = 8000 K (value for the effective temperature for the model. Temperatures are given in K)
#
# column 1: WAVELENGTH (ANGSTROM), Wavelength in Angstrom
# column 2: FLUX (ERG/CM2/S/A), Flux in erg/cm2/s/A
         3000.2        1.781e+7 
         3000.5        1.754e+7 
         3000.8        1.725e+7 
         3001.1        1.693e+7 
         3001.4         1.66e+7 
         3001.7        1.627e+7 
           3002        1.598e+7 
         3002.3        1.576e+7 
         3002.6        1.567e+7 
         3002.9        1.574e+7 
         3003.2        1.597e+7 
         3003.5        1.635e+7 
         3003.8        1.684e+7 
         3004.1         1.74e+7 
         3004.4        1.796e+7 
         3004.7        1.848e+7 
           3005        1.892e+7 
         3005.3        1.925e+7 
         3005.6        1.946e+7 
         3005.9        1.955e+7 
         3006.2        1.954e+7 
         3006.5        1.942e+7 
         3006.8        1.923e+7 
         3007.1        1.898e+7 
         3007.4        1.871e+7 
         3007.7        1.846e+7 
           3008        1.826e+7 
         3008.3        1.814e+7 
         3008.6        1.812e+7 
         3008.9         1.82e+7 
         3009.2        1.834e+7 
         3009.5        1.853e+7 
         3009.8         1.87e+7 
         3010.1        1.884e+7 
         3010.4        1.892e+7 
         3010.7        1.895e+7 
           3011        1.893e+7 
         3011.3         1.89e+7 
         3011.6        1.886e+7 
         3011.9        1.885e+7 
         3012.2        1.887e+7 
         3012.5        1.891e+7 
         3012.8        1.896e+7 
         3013.1        1.899e+7 
         3013.4        1.898e+7 
         3013.7        1.892e+7 
           3014         1.88e+7 
         3014.3        1.863e+7 
         3014.6        1.841e+7 
         3014.9        1.817e+7 
         3015.2        1.795e+7 
         3015.5        1.776e+7 
         3015.8        1.763e+7 
         3016.1        1.757e+7 
         3016.4        1.759e+7 
         3016.7        1.765e+7 
           3017        1.777e+7 
         3017.3         1.79e+7 
         3017.6        1.804e+7 
         3017.9        1.813e+7 
         3018.2        1.817e+7 
         3018.5        1.812e+7 
         3018.8        1.798e+7 
         3019.1        1.775e+7 
         3019.4        1.747e+7 
         3019.7        1.718e+7 
           3020        1.693e+7 
         3020.3        1.678e+7 
         3020.6        1.676e+7 
         3020.9         1.69e+7 
         3021.2        1.718e+7 
         3021.5        1.754e+7 
         3021.8        1.794e+7 
         3022.1        1.832e+7 
         3022.4        1.862e+7 
         3022.7        1.882e+7 
           3023        1.892e+7 
         3023.3        1.894e+7 
         3023.6        1.889e+7 
         3023.9         1.88e+7 
         3024.2        1.869e+7 
         3024.5        1.855e+7 
         3024.8        1.838e+7 
         3025.1         1.82e+7 
         3025.4        1.802e+7 
         3025.7        1.786e+7 
           3026        1.775e+7 
         3026.3        1.772e+7 
         3026.6        1.779e+7 
         3026.9        1.793e+7 
         3027.2        1.814e+7 
         3027.5        1.838e+7 
         3027.8        1.862e+7 
         3028.1        1.884e+7 
         3028.4        1.899e+7 
         3028.7        1.909e+7 
           3029        1.911e+7 
         3029.3        1.907e+7 
         3029.6        1.899e+7 
         3029.9        1.887e+7 
         3030.2        1.875e+7 
         3030.5        1.863e+7 
         3030.8        1.854e+7 
         3031.1        1.846e+7 
         3031.4        1.842e+7 
         3031.7        1.838e+7 
           3032        1.833e+7 
         3032.3        1.825e+7 
         3032.6        1.814e+7 
         3032.9        1.799e+7 
         3033.2        1.783e+7 
         3033.5        1.769e+7 
         3033.8         1.76e+7 
         3034.1        1.757e+7 
         3034.4        1.761e+7 
         3034.7         1.77e+7 
           3035         1.78e+7 
         3035.3         1.79e+7 
         3035.6        1.795e+7 
         3035.9        1.793e+7 
         3036.2        1.783e+7 
         3036.5        1.765e+7 
         3036.8        1.742e+7 
         3037.1        1.717e+7 
         3037.4        1.695e+7 
         3037.7        1.681e+7 
           3038        1.676e+7 
         3038.3        1.682e+7 
         3038.6        1.699e+7 
         3038.9        1.724e+7 
         3039.2        1.752e+7 
         3039.5        1.778e+7 
         3039.8        1.797e+7 
         3040.1        1.806e+7 
         3040.4        1.806e+7 
         3040.7        1.797e+7 
           3041        1.784e+7 
         3041.3        1.769e+7 
         3041.6        1.756e+7 
         3041.9        1.746e+7 
         3042.2        1.739e+7 
         3042.5        1.736e+7 
         3042.8        1.735e+7 
         3043.1        1.735e+7 
         3043.4        1.736e+7 
         3043.7        1.739e+7 
           3044        1.744e+7 
         3044.3        1.752e+7 
         3044.6        1.762e+7 
         3044.9        1.774e+7 
         3045.2        1.787e+7 
         3045.5        1.798e+7 
         3045.8        1.806e+7 
         3046.1        1.808e+7 
         3046.4        1.803e+7 
         3046.7        1.791e+7 
           3047        1.773e+7 
         3047.3        1.751e+7 
         3047.6        1.728e+7 
         3047.9        1.707e+7 
         3048.2        1.691e+7 
         3048.5        1.683e+7 
         3048.8        1.683e+7 
         3049.1        1.692e+7 
         3049.4        1.709e+7 
         3049.7        1.733e+7 
           3050        1.761e+7 
         3050.3        1.793e+7 
         3050.6        1.826e+7 
         3050.9         1.86e+7 
         3051.2        1.893e+7 
         3051.5         1.92e+7 
         3051.8         1.94e+7 
         3052.1        1.949e+7 
         3052.4        1.948e+7 
         3052.7        1.936e+7 
           3053        1.917e+7 
         3053.3        1.894e+7 
         3053.6        1.872e+7 
         3053.9        1.855e+7 
         3054.2        1.842e+7 
         3054.5        1.835e+7 
         3054.8         1.83e+7 
         3055.1        1.824e+7 
         3055.4        1.814e+7 
         3055.7        1.798e+7 
           3056        1.776e+7 
         3056.3        1.748e+7 
         3056.6        1.718e+7 
         3056.9        1.689e+7 
         3057.2        1.666e+7 
         3057.5         1.65e+7 
         3057.8        1.641e+7 
         3058.1        1.638e+7 
         3058.4        1.639e+7 
         3058.7        1.643e+7 
           3059        1.651e+7 
         3059.3        1.665e+7 
         3059.6        1.686e+7 
         3059.9        1.713e+7 
         3060.2        1.746e+7 
         3060.5        1.778e+7 
         3060.8        1.804e+7 
         3061.1        1.821e+7 
         3061.4        1.825e+7 
         3061.7        1.817e+7 
           3062        1.802e+7 
         3062.3        1.781e+7 
         3062.6        1.759e+7 
         3062.9         1.74e+7 
         3063.2        1.725e+7 
         3063.5        1.715e+7 
         3063.8        1.708e+7 
         3064.1        1.701e+7 
         3064.4        1.691e+7 
         3064.7        1.677e+7 
           3065        1.657e+7 
         3065.3        1.634e+7 
         3065.6        1.612e+7 
         3065.9        1.598e+7 
         3066.2        1.596e+7 
         3066.5        1.612e+7 
         3066.8        1.645e+7 
         3067.1        1.693e+7 
         3067.4        1.751e+7 
         3067.7        1.812e+7 
           3068        1.868e+7 
         3068.3        1.915e+7 
         3068.6        1.948e+7 
         3068.9        1.965e+7 
         3069.2        1.965e+7 
         3069.5         1.95e+7 
         3069.8        1.921e+7 
         3070.1        1.883e+7 
         3070.4        1.841e+7 
         3070.7          1.8e+7 
           3071        1.766e+7 
         3071.3        1.741e+7 
         3071.6        1.727e+7 
         3071.9        1.725e+7 
         3072.2        1.732e+7 
         3072.5        1.747e+7 
         3072.8        1.768e+7 
         3073.1         1.79e+7 
         3073.4         1.81e+7 
         3073.7        1.822e+7 
           3074        1.824e+7 
         3074.3        1.817e+7 
         3074.6        1.802e+7 
         3074.9        1.784e+7 
         3075.2        1.769e+7 
         3075.5        1.761e+7 
         3075.8        1.761e+7 
         3076.1         1.77e+7 
         3076.4        1.782e+7 
         3076.7        1.793e+7 
           3077          1.8e+7 
         3077.3        1.801e+7 
         3077.6        1.797e+7 
         3077.9        1.792e+7 
         3078.2        1.788e+7 
         3078.5        1.792e+7 
         3078.8        1.803e+7 
         3079.1        1.822e+7 
         3079.4        1.845e+7 
         3079.7        1.869e+7 
           3080        1.889e+7 
         3080.3        1.901e+7 
         3080.6        1.904e+7 
         3080.9        1.898e+7 
         3081.2        1.886e+7 
         3081.5         1.87e+7 
         3081.8        1.853e+7 
         3082.1        1.838e+7 
         3082.4        1.829e+7 
         3082.7        1.829e+7 
           3083        1.838e+7 
         3083.3        1.856e+7 
         3083.6        1.882e+7 
         3083.9        1.914e+7 
         3084.2        1.945e+7 
         3084.5        1.972e+7 
         3084.8        1.991e+7 
         3085.1        1.999e+7 
         3085.4        1.995e+7 
         3085.7        1.979e+7 
           3086        1.953e+7 
         3086.3         1.92e+7 
         3086.6        1.883e+7 
         3086.9        1.846e+7 
         3087.2        1.812e+7 
         3087.5        1.784e+7 
         3087.8        1.766e+7 
         3088.1        1.759e+7 
         3088.4        1.762e+7 
         3088.7        1.774e+7 
           3089        1.792e+7 
         3089.3        1.815e+7 
         3089.6        1.839e+7 
         3089.9        1.863e+7 
         3090.2        1.884e+7 
         3090.5          1.9e+7 
         3090.8        1.907e+7 
         3091.1        1.903e+7 
         3091.4        1.888e+7 
         3091.7        1.862e+7 
           3092        1.828e+7 
         3092.3         1.79e+7 
         3092.6        1.754e+7 
         3092.9        1.727e+7 
         3093.2        1.713e+7 
         3093.5        1.712e+7 
         3093.8        1.723e+7 
         3094.1         1.74e+7 
         3094.4        1.757e+7 
         3094.7        1.769e+7 
           3095        1.772e+7 
         3095.3        1.763e+7 
         3095.6        1.745e+7 
         3095.9        1.721e+7 
         3096.2        1.698e+7 
         3096.5        1.681e+7 
         3096.8        1.675e+7 
         3097.1        1.683e+7 
         3097.4        1.703e+7 
         3097.7        1.733e+7 
           3098        1.767e+7 
         3098.3        1.797e+7 
         3098.6        1.818e+7 
         3098.9        1.827e+7 
         3099.2        1.823e+7 
         3099.5         1.81e+7 
         3099.8        1.791e+7 
         3100.1        1.772e+7 
         3100.4        1.755e+7 
         3100.7        1.744e+7 
           3101        1.738e+7 
         3101.3        1.738e+7 
         3101.6        1.741e+7 
         3101.9        1.745e+7 
         3102.2        1.748e+7 
         3102.5        1.746e+7 
         3102.8         1.74e+7 
         3103.1        1.725e+7 
         3103.4        1.702e+7 
         3103.7        1.673e+7 
           3104         1.64e+7 
         3104.3        1.608e+7 
         3104.6        1.582e+7 
         3104.9        1.569e+7 
         3105.2        1.569e+7 
         3105.5        1.585e+7 
         3105.8        1.615e+7 
         3106.1        1.655e+7 
         3106.4        1.701e+7 
         3106.7        1.747e+7 
           3107         1.79e+7 
         3107.3        1.824e+7 
         3107.6        1.849e+7 
         3107.9        1.862e+7 
         3108.2        1.864e+7 
         3108.5        1.858e+7 
         3108.8        1.846e+7 
         3109.1        1.832e+7 
         3109.4         1.82e+7 
         3109.7        1.812e+7 
           3110         1.81e+7 
         3110.3        1.816e+7 
         3110.6        1.828e+7 
         3110.9        1.845e+7 
         3111.2        1.864e+7 
         3111.5        1.883e+7 
         3111.8          1.9e+7 
         3112.1        1.911e+7 
         3112.4        1.917e+7 
         3112.7        1.917e+7 
           3113         1.91e+7 
         3113.3        1.898e+7 
         3113.6        1.881e+7 
         3113.9        1.862e+7 
         3114.2        1.844e+7 
         3114.5        1.828e+7 
         3114.8        1.817e+7 
         3115.1        1.811e+7 
         3115.4        1.807e+7 
         3115.7        1.805e+7 
           3116        1.802e+7 
         3116.3        1.793e+7 
         3116.6        1.779e+7 
         3116.9        1.757e+7 
         3117.2        1.729e+7 
         3117.5        1.696e+7 
         3117.8        1.662e+7 
         3118.1        1.631e+7 
         3118.4        1.604e+7 
         3118.7        1.584e+7 
           3119        1.569e+7 
         3119.3        1.561e+7 
         3119.6        1.556e+7 
         3119.9        1.555e+7 
         3120.2        1.557e+7 
         3120.5        1.566e+7 
         3120.8         1.58e+7 
         3121.1        1.601e+7 
         3121.4        1.627e+7 
         3121.7        1.658e+7 
           3122        1.693e+7 
         3122.3        1.728e+7 
         3122.6        1.762e+7 
         3122.9         1.79e+7 
         3123.2        1.809e+7 
         3123.5        1.816e+7 
         3123.8        1.808e+7 
         3124.1        1.786e+7 
         3124.4        1.757e+7 
         3124.7        1.727e+7 
           3125        1.704e+7 
         3125.3        1.698e+7 
         3125.6         1.71e+7 
         3125.9         1.74e+7 
         3126.2        1.782e+7 
         3126.5        1.827e+7 
         3126.8        1.867e+7 
         3127.1        1.894e+7 
         3127.4        1.906e+7 
         3127.7        1.902e+7 
           3128        1.885e+7 
         3128.3         1.86e+7 
         3128.6        1.832e+7 
         3128.9        1.802e+7 
         3129.2        1.773e+7 
         3129.5        1.743e+7 
         3129.8        1.712e+7 
         3130.1        1.681e+7 
         3130.4        1.651e+7 
         3130.7        1.624e+7 
           3131        1.603e+7 
         3131.3        1.591e+7 
         3131.6        1.586e+7 
         3131.9        1.589e+7 
         3132.2        1.599e+7 
         3132.5        1.612e+7 
         3132.8        1.627e+7 
         3133.1        1.641e+7 
         3133.4        1.654e+7 
         3133.7        1.665e+7 
           3134        1.675e+7 
         3134.3        1.685e+7 
         3134.6        1.696e+7 
         3134.9        1.709e+7 
         3135.2        1.723e+7 
         3135.5        1.739e+7 
         3135.8        1.758e+7 
         3136.1         1.78e+7 
         3136.4        1.805e+7 
         3136.7        1.834e+7 
           3137        1.864e+7 
         3137.3        1.893e+7 
         3137.6         1.92e+7 
         3137.9         1.94e+7 
         3138.2        1.952e+7 
         3138.5        1.955e+7 
         3138.8        1.949e+7 
         3139.1        1.937e+7 
         3139.4        1.921e+7 
         3139.7        1.906e+7 
           3140        1.893e+7 
         3140.3        1.883e+7 
         3140.6        1.876e+7 
         3140.9        1.869e+7 
         3141.2         1.86e+7 
         3141.5        1.848e+7 
         3141.8        1.832e+7 
         3142.1        1.813e+7 
         3142.4        1.792e+7 
         3142.7         1.77e+7 
           3143        1.748e+7 
         3143.3        1.726e+7 
         3143.6        1.705e+7 
         3143.9        1.684e+7 
         3144.2        1.666e+7 
         3144.5        1.653e+7 
         3144.8        1.646e+7 
         3145.1        1.648e+7 
         3145.4         1.66e+7 
         3145.7        1.681e+7 
           3146        1.709e+7 
         3146.3        1.739e+7 
         3146.6        1.769e+7 
         3146.9        1.796e+7 
         3147.2        1.819e+7 
         3147.5        1.838e+7 
         3147.8        1.855e+7 
         3148.1        1.869e+7 
         3148.4        1.881e+7 
         3148.7        1.892e+7 
           3149        1.902e+7 
         3149.3         1.91e+7 
         3149.6        1.917e+7 
         3149.9        1.923e+7 
         3150.2        1.928e+7 
         3150.5        1.931e+7 
         3150.8        1.932e+7 
         3151.1         1.93e+7 
         3151.4        1.926e+7 
         3151.7        1.921e+7 
           3152        1.916e+7 
         3152.3        1.912e+7 
         3152.6        1.909e+7 
         3152.9        1.907e+7 
         3153.2        1.903e+7 
         3153.5        1.896e+7 
         3153.8        1.887e+7 
         3154.1        1.876e+7 
         3154.4        1.864e+7 
         3154.7        1.852e+7 
           3155        1.842e+7 
         3155.3        1.834e+7 
         3155.6        1.828e+7 
         3155.9        1.824e+7 
         3156.2         1.82e+7 
         3156.5        1.812e+7 
         3156.8          1.8e+7 
         3157.1        1.782e+7 
         3157.4        1.758e+7 
         3157.7        1.732e+7 
           3158        1.706e+7 
         3158.3        1.686e+7 
         3158.6        1.674e+7 
         3158.9        1.673e+7 
         3159.2        1.681e+7 
         3159.5        1.696e+7 
         3159.8        1.711e+7 
         3160.1         1.72e+7 
         3160.4        1.718e+7 
         3160.7        1.704e+7 
           3161        1.678e+7 
         3161.3        1.645e+7 
         3161.6        1.612e+7 
         3161.9        1.586e+7 
         3162.2        1.572e+7 
         3162.5        1.574e+7 
         3162.8        1.592e+7 
         3163.1        1.621e+7 
         3163.4        1.657e+7 
         3163.7        1.693e+7 
           3164        1.725e+7 
         3164.3        1.749e+7 
         3164.6        1.767e+7 
         3164.9        1.778e+7 
         3165.2        1.785e+7 
         3165.5        1.788e+7 
         3165.8        1.789e+7 
         3166.1        1.786e+7 
         3166.4        1.779e+7 
         3166.7        1.769e+7 
           3167        1.756e+7 
         3167.3        1.742e+7 
         3167.6        1.729e+7 
         3167.9        1.722e+7 
         3168.2        1.723e+7 
         3168.5        1.733e+7 
         3168.8        1.753e+7 
         3169.1         1.78e+7 
         3169.4         1.81e+7 
         3169.7        1.843e+7 
           3170        1.874e+7 
         3170.3        1.904e+7 
         3170.6        1.932e+7 
         3170.9        1.957e+7 
         3171.2        1.979e+7 
         3171.5        1.996e+7 
         3171.8        2.009e+7 
         3172.1        2.016e+7 
         3172.4         2.02e+7 
         3172.7        2.019e+7 
           3173        2.016e+7 
         3173.3        2.011e+7 
         3173.6        2.005e+7 
         3173.9          2.0e+7 
         3174.2        1.996e+7 
         3174.5        1.996e+7 
         3174.8        1.999e+7 
         3175.1        2.003e+7 
         3175.4        2.006e+7 
         3175.7        2.005e+7 
           3176        1.998e+7 
         3176.3        1.981e+7 
         3176.6        1.954e+7 
         3176.9        1.918e+7 
         3177.2        1.874e+7 
         3177.5        1.825e+7 
         3177.8        1.775e+7 
         3178.1        1.727e+7 
