# Granada HRES Library
# atmosphere = Phoenix  (atmosphere model used)
# feh = 3  (value for [Fe/H] for the model.)
# logg = 0.5 log(cm/s2) (value for Log(G) for the model.)
# teff = 4500 K (value for the effective temperature for the model. Temperatures are given in K)
#
# column 1: WAVELENGTH (ANGSTROM), Wavelength in Angstrom
# column 2: FLUX (ERG/CM2/S/A), Flux in erg/cm2/s/A
         3000.2           740.4 
         3000.5             635 
         3000.8           568.7 
         3001.1           539.1 
         3001.4           535.3 
         3001.7           544.6 
           3002             562 
         3002.3           598.2 
         3002.6           680.8 
         3002.9             847 
         3003.2            1131 
         3003.5            1553 
         3003.8            2105 
         3004.1            2750 
         3004.4            3424 
         3004.7            4047 
           3005            4538 
         3005.3            4824 
         3005.6            4863 
         3005.9            4645 
         3006.2            4203 
         3006.5            3607 
         3006.8            2951 
         3007.1            2331 
         3007.4            1833 
         3007.7            1514 
           3008            1398 
         3008.3            1486 
         3008.6            1755 
         3008.9            2175 
         3009.2            2706 
         3009.5            3296 
         3009.8            3862 
         3010.1            4305 
         3010.4            4542 
         3010.7            4546 
           3011            4379 
         3011.3            4164 
         3011.6            4045 
         3011.9            4112 
         3012.2            4361 
         3012.5            4698 
         3012.8            4990 
         3013.1            5130 
         3013.4            5079 
         3013.7            4872 
           3014            4586 
         3014.3            4308 
         3014.6            4088 
         3014.9            3943 
         3015.2            3849 
         3015.5            3773 
         3015.8            3689 
         3016.1            3579 
         3016.4            3429 
         3016.7            3223 
           3017            2956 
         3017.3            2643 
         3017.6            2313 
         3017.9            1998 
         3018.2            1709 
         3018.5            1443 
         3018.8            1194 
         3019.1           957.2 
         3019.4           741.7 
         3019.7           558.7 
           3020           418.6 
         3020.3           328.7 
         3020.6           295.2 
         3020.9           322.8 
         3021.2           414.9 
         3021.5           569.5 
         3021.8           774.9 
         3022.1            1008 
         3022.4            1234 
         3022.7            1416 
           3023            1524 
         3023.3            1553 
         3023.6            1516 
         3023.9            1446 
         3024.2            1369 
         3024.5            1302 
         3024.8            1244 
         3025.1            1201 
         3025.4            1193 
         3025.7            1264 
           3026            1466 
         3026.3            1837 
         3026.6            2390 
         3026.9            3101 
         3027.2            3927 
         3027.5            4802 
         3027.8            5663 
         3028.1            6442 
         3028.4            7085 
         3028.7            7542 
           3029            7763 
         3029.3            7705 
         3029.6            7348 
         3029.9            6732 
         3030.2            5975 
         3030.5            5284 
         3030.8            4909 
         3031.1            5061 
         3031.4            5825 
         3031.7            7108 
           3032            8635 
         3032.3           10050 
         3032.6           11000 
         3032.9           11320 
         3033.2           11010 
         3033.5           10230 
         3033.8            9188 
         3034.1            8117 
         3034.4            7178 
         3034.7            6427 
           3035            5825 
         3035.3            5277 
         3035.6            4693 
         3035.9            4035 
         3036.2            3325 
         3036.5            2629 
         3036.8            2027 
         3037.1            1589 
         3037.4            1350 
         3037.7            1318 
           3038            1477 
         3038.3            1795 
         3038.6            2237 
         3038.9            2766 
         3039.2            3334 
         3039.5            3883 
         3039.8            4351 
         3040.1            4684 
         3040.4            4851 
         3040.7            4847 
           3041            4690 
         3041.3            4433 
         3041.6            4169 
         3041.9            4001 
         3042.2            4006 
         3042.5            4202 
         3042.8            4561 
         3043.1            5039 
         3043.4            5600 
         3043.7            6211 
           3044            6813 
         3044.3            7308 
         3044.6            7584 
         3044.9            7564 
         3045.2            7236 
         3045.5            6640 
         3045.8            5847 
         3046.1            4937 
         3046.4            3987 
         3046.7            3085 
           3047            2318 
         3047.3            1763 
         3047.6            1471 
         3047.9            1459 
         3048.2            1706 
         3048.5            2152 
         3048.8            2701 
         3049.1            3223 
         3049.4            3599 
         3049.7            3750 
           3050            3691 
         3050.3            3527 
         3050.6            3420 
         3050.9            3520 
         3051.2            3908 
         3051.5            4557 
         3051.8            5332 
         3052.1            6026 
         3052.4            6431 
         3052.7            6413 
           3053            5980 
         3053.3            5267 
         3053.6            4480 
         3053.9            3810 
         3054.2            3378 
         3054.5            3217 
         3054.8            3286 
         3055.1            3493 
         3055.4            3718 
         3055.7            3843 
           3056            3786 
         3056.3            3530 
         3056.6            3121 
         3056.9            2641 
         3057.2            2177 
         3057.5            1786 
         3057.8            1488 
         3058.1            1278 
         3058.4            1152 
         3058.7            1129 
           3059            1253 
         3059.3            1586 
         3059.6            2182 
         3059.9            3058 
         3060.2            4181 
         3060.5            5473 
         3060.8            6823 
         3061.1            8125 
         3061.4            9287 
         3061.7           10230 
           3062           10870 
         3062.3           11100 
         3062.6           10820 
         3062.9           10060 
         3063.2            8933 
         3063.5            7699 
         3063.8            6632 
         3064.1            5954 
         3064.4            5757 
         3064.7            5970 
           3065            6386 
         3065.3            6745 
         3065.6            6841 
         3065.9            6607 
         3066.2            6143 
         3066.5            5676 
         3066.8            5490 
         3067.1            5875 
         3067.4            7082 
         3067.7            9266 
           3068           12370 
         3068.3           16040 
         3068.6           19580 
         3068.9           22170 
         3069.2           23160 
         3069.5           22420 
         3069.8           20420 
         3070.1           17980 
         3070.4           15900 
         3070.7           14580 
           3071           13980 
         3071.3           13770 
         3071.6           13620 
         3071.9           13320 
         3072.2           12860 
         3072.5           12310 
         3072.8           11770 
         3073.1           11290 
         3073.4           10910 
         3073.7           10640 
           3074           10470 
         3074.3           10390 
         3074.6           10460 
         3074.9           10910 
         3075.2           12050 
         3075.5           14190 
         3075.8           17320 
         3076.1           20960 
         3076.4           24210 
         3076.7           26100 
           3077           26020 
         3077.3           24030 
         3077.6           20810 
         3077.9           17380 
         3078.2           14640 
         3078.5           13130 
         3078.8           12920 
         3079.1           13660 
         3079.4           14760 
         3079.7           15590 
           3080           15680 
         3080.3           14830 
         3080.6           13210 
         3080.9           11270 
         3081.2            9547 
         3081.5            8462 
         3081.8            8172 
         3082.1            8573 
         3082.4            9400 
         3082.7           10390 
           3083           11430 
         3083.3           12630 
         3083.6           14200 
         3083.9           16340 
         3084.2           19030 
         3084.5           21970 
         3084.8           24690 
         3085.1           26620 
         3085.4           27340 
         3085.7           26750 
           3086           25130 
         3086.3           23080 
         3086.6           21190 
         3086.9           19840 
         3087.2           19120 
         3087.5           18950 
         3087.8           19140 
         3088.1           19420 
         3088.4           19470 
         3088.7           19110 
           3089           18360 
         3089.3           17560 
         3089.6           17070 
         3089.9           17030 
         3090.2           17150 
         3090.5           16870 
         3090.8           15730 
         3091.1           13640 
         3091.4           10960 
         3091.7            8260 
           3092            6063 
         3092.3            4674 
         3092.6            4155 
         3092.9            4393 
         3093.2            5176 
         3093.5            6244 
         3093.8            7333 
         3094.1            8224 
         3094.4            8791 
         3094.7            9032 
           3095            9063 
         3095.3            9057 
         3095.6            9171 
         3095.9            9505 
         3096.2           10110 
         3096.5           11030 
         3096.8           12300 
         3097.1           13840 
         3097.4           15380 
         3097.7           16460 
           3098           16610 
         3098.3           15580 
         3098.6           13480 
         3098.9           10780 
         3099.2            8010 
         3099.5            5647 
         3099.8            3916 
         3100.1            2826 
         3100.4            2256 
         3100.7            2070 
           3101            2217 
         3101.3            3863 
         3101.6            5684 
         3101.9            8236 
         3102.2           11310 
         3102.5           14480 
         3102.8           17310 
         3103.1           19520 
         3103.4           21060 
         3103.7           22030 
           3104           22430 
         3104.3           22120 
         3104.6           20880 
         3104.9           18730 
         3105.2           15970 
         3105.5           13200 
         3105.8           10990 
         3106.1            9783 
         3106.4            9695 
         3106.7           10700 
           3107           12770 
         3107.3           15970 
         3107.6           20370 
         3107.9           25840 
         3108.2           31780 
         3108.5           37140 
         3108.8           40660 
         3109.1           41570 
         3109.4           40000 
         3109.7           37050 
           3110           34260 
         3110.3           32850 
         3110.6           33220 
         3110.9           34790 
         3111.2           36410 
         3111.5           36880 
         3111.8           35580 
         3112.1           32570 
         3112.4           28510 
         3112.7           24420 
           3113           21340 
         3113.3           20090 
         3113.6           21110 
         3113.9           24290 
         3114.2           29000 
         3114.5           34190 
         3114.8           38740 
         3115.1           41660 
         3115.4           42330 
         3115.7           40620 
           3116           36780 
         3116.3           31490 
         3116.6           25680 
         3116.9           20260 
         3117.2           15960 
         3117.5           13140 
         3117.8           11760 
         3118.1           11510 
         3118.4           11890 
         3118.7           12450 
           3119           12950 
         3119.3           13390 
         3119.6           13940 
         3119.9           14700 
         3120.2           15570 
         3120.5           16310 
         3120.8           16700 
         3121.1           16780 
         3121.4           16890 
         3121.7           17560 
           3122           19320 
         3122.3           22450 
         3122.6           26900 
         3122.9           32160 
         3123.2           37310 
         3123.5           41260 
         3123.8           43090 
         3124.1           42580 
         3124.4           40340 
         3124.7           37500 
           3125           35250 
         3125.3           34160 
         3125.6           34150 
         3125.9           34580 
         3126.2           34640 
         3126.5           33730 
         3126.8           31650 
         3127.1           28640 
         3127.4           25270 
         3127.7           22230 
           3128           20100 
         3128.3           19190 
         3128.6           19460 
         3128.9           20480 
         3129.2           21600 
         3129.5           22160 
         3129.8           21780 
         3130.1           20560 
         3130.4           18950 
         3130.7           17500 
           3131           16550 
         3131.3           16150 
         3131.6           16020 
         3131.9           15800 
         3132.2           15180 
         3132.5           14070 
         3132.8           12640 
         3133.1           11300 
         3133.4           10600 
         3133.7           11030 
           3134           12750 
         3134.3           15470 
         3134.6           18470 
         3134.9           20930 
         3135.2           22240 
         3135.5           22420 
         3135.8           21940 
         3136.1           21530 
         3136.4           21790 
         3136.7           23010 
           3137           25250 
         3137.3           28390 
         3137.6           32310 
         3137.9           36760 
         3138.2           41330 
         3138.5           45320 
         3138.8           47910 
         3139.1           48560 
         3139.4           47370 
         3139.7           45140 
           3140           42890 
         3140.3           41280 
         3140.6           40180 
         3140.9           38900 
         3141.2           36870 
         3141.5           34010 
         3141.8           30780 
         3142.1           27730 
         3142.4           25120 
         3142.7           22910 
           3143           20910 
         3143.3           19150 
         3143.6           17850 
         3143.9           17330 
         3144.2           17890 
         3144.5           19720 
         3144.8           22910 
         3145.1           27220 
         3145.4           31990 
         3145.7           36160 
           3146           38630 
         3146.3           38740 
         3146.6           36710 
         3146.9           33570 
         3147.2           30770 
         3147.5           29800 
         3147.8           31720 
         3148.1           36960 
         3148.4           45180 
         3148.7           55400 
           3149           66150 
         3149.3           75930 
         3149.6           83360 
         3149.9           87410 
         3150.2           87470 
         3150.5           83470 
         3150.8           76030 
         3151.1           66360 
         3151.4           55940 
         3151.7           46150 
           3152           38030 
         3152.3           32020 
         3152.6           28060 
         3152.9           25640 
         3153.2           24030 
         3153.5           22530 
         3153.8           20780 
         3154.1           18890 
         3154.4           17250 
         3154.7           16330 
           3155           16310 
         3155.3           17130 
         3155.6           18480 
         3155.9           19960 
         3156.2           21240 
         3156.5           22100 
         3156.8           22520 
         3157.1           22650 
         3157.4           22730 
         3157.7           23000 
           3158           23610 
         3158.3           24590 
         3158.6           25840 
         3158.9           27070 
         3159.2           27850 
         3159.5           27750 
         3159.8           26500 
         3160.1           24210 
         3160.4           21310 
         3160.7           18480 
           3161           16450 
         3161.3           15820 
         3161.6           16950 
         3161.9           19800 
         3162.2           23880 
         3162.5           28340 
         3162.8           32150 
         3163.1           34380 
         3163.4           34620 
         3163.7           33000 
           3164           30140 
         3164.3           26850 
         3164.6           23910 
         3164.9           22050 
         3165.2           21740 
         3165.5           23210 
         3165.8           26260 
         3166.1           30330 
         3166.4           34530 
         3166.7           37930 
           3167           39750 
         3167.3           39710 
         3167.6           38000 
         3167.9           35250 
         3168.2           32350 
         3168.5           30070 
         3168.8           28990 
         3169.1           29420 
         3169.4           31540 
         3169.7           35500 
           3170           41400 
         3170.3           48990 
         3170.6           57650 
         3170.9           66420 
         3171.2           74300 
         3171.5           80280 
         3171.8           83630 
         3172.1           84110 
         3172.4           82290 
         3172.7           79580 
           3173           77880 
         3173.3           78460 
         3173.6           81260 
         3173.9           84930 
         3174.2           87940 
         3174.5           89690 
         3174.8           90990 
         3175.1           93310 
         3175.4           97450 
         3175.7          102600 
           3176          106800 
         3176.3          107800 
         3176.6          104200 
         3176.9           96210 
         3177.2           85610 
         3177.5           74600 
         3177.8           64950 
         3178.1           57310 
