# Granada HRES Library
# atmosphere = Phoenix  (atmosphere model used)
# feh = -5  (value for [Fe/H] for the model.)
# logg = 2 log(cm/s2) (value for Log(G) for the model.)
# teff = 4000 K (value for the effective temperature for the model. Temperatures are given in K)
#
# column 1: WAVELENGTH (ANGSTROM), Wavelength in Angstrom
# column 2: FLUX (ERG/CM2/S/A), Flux in erg/cm2/s/A
         3000.2            1029 
         3000.5           923.1 
         3000.8           855.8 
         3001.1           821.2 
         3001.4           804.7 
         3001.7           789.9 
           3002           768.6 
         3002.3           748.8 
         3002.6           753.3 
         3002.9           810.2 
         3003.2           940.9 
         3003.5            1152 
         3003.8            1432 
         3004.1            1754 
         3004.4            2081 
         3004.7            2380 
           3005            2617 
         3005.3            2768 
         3005.6            2817 
         3005.9            2756 
         3006.2            2595 
         3006.5            2358 
         3006.8            2087 
         3007.1            1826 
         3007.4            1619 
         3007.7            1494 
           3008            1466 
         3008.3            1531 
         3008.6            1679 
         3008.9            1891 
         3009.2            2158 
         3009.5            2454 
         3009.8            2743 
         3010.1            2971 
         3010.4            3082 
         3010.7            3050 
           3011            2904 
         3011.3            2714 
         3011.6            2563 
         3011.9            2508 
         3012.2            2555 
         3012.5            2660 
         3012.8            2760 
         3013.1            2806 
         3013.4            2782 
         3013.7            2704 
           3014            2605 
         3014.3            2522 
         3014.6            2480 
         3014.9            2484 
         3015.2            2525 
         3015.5            2583 
         3015.8            2637 
         3016.1            2670 
         3016.4            2668 
         3016.7            2620 
           3017            2523 
         3017.3            2389 
         3017.6            2232 
         3017.9            2069 
         3018.2            1906 
         3018.5            1736 
         3018.8            1555 
         3019.1            1358 
         3019.4            1155 
         3019.7           958.2 
           3020           787.1 
         3020.3           661.6 
         3020.6           601.6 
         3020.9           621.9 
         3021.2             726 
         3021.5           903.4 
         3021.8            1130 
         3022.1            1370 
         3022.4            1585 
         3022.7            1736 
           3023            1804 
         3023.3            1783 
         3023.6            1695 
         3023.9            1575 
         3024.2            1457 
         3024.5            1364 
         3024.8            1296 
         3025.1            1247 
         3025.4            1217 
         3025.7            1216 
           3026            1258 
         3026.3            1348 
         3026.6            1474 
         3026.9            1613 
         3027.2            1743 
         3027.5            1860 
         3027.8            1975 
         3028.1            2116 
         3028.4            2299 
         3028.7            2521 
           3029            2750 
         3029.3            2937 
         3029.6            3038 
         3029.9            3035 
         3030.2            2955 
         3030.5            2864 
         3030.8            2853 
         3031.1            3001 
         3031.4            3334 
         3031.7            3798 
           3032            4265 
         3032.3            4584 
         3032.6            4640 
         3032.9            4413 
         3033.2            3978 
         3033.5            3467 
         3033.8            3019 
         3034.1            2727 
         3034.4            2615 
         3034.7            2644 
           3035            2733 
         3035.3            2794 
         3035.6            2764 
         3035.9            2624 
         3036.2            2392 
         3036.5            2118 
         3036.8            1858 
         3037.1            1671 
         3037.4            1594 
         3037.7            1637 
           3038            1779 
         3038.3            1980 
         3038.6            2201 
         3038.9            2415 
         3039.2            2612 
         3039.5            2780 
         3039.8            2905 
         3040.1            2966 
         3040.4            2949 
         3040.7            2858 
           3041            2720 
         3041.3            2584 
         3041.6            2503 
         3041.9            2520 
         3042.2            2644 
         3042.5            2851 
         3042.8            3089 
         3043.1            3309 
         3043.4            3479 
         3043.7            3596 
           3044            3674 
         3044.3            3731 
         3044.6            3778 
         3044.9            3817 
         3045.2            3833 
         3045.5            3796 
         3045.8            3669 
         3046.1            3425 
         3046.4            3067 
         3046.7            2637 
           3047            2205 
         3047.3            1848 
         3047.6            1627 
         3047.9            1573 
         3048.2            1685 
         3048.5            1931 
         3048.8            2254 
         3049.1            2577 
         3049.4            2824 
         3049.7            2937 
           3050            2908 
         3050.3            2778 
         3050.6            2620 
         3050.9            2503 
         3051.2            2466 
         3051.5            2508 
         3051.8            2598 
         3052.1            2687 
         3052.4            2730 
         3052.7            2695 
           3053            2581 
         3053.3            2413 
         3053.6            2235 
         3053.9            2087 
         3054.2            1996 
         3054.5            1966 
         3054.8            1980 
         3055.1            2010 
         3055.4            2030 
         3055.7            2020 
           3056            1976 
         3056.3            1905 
         3056.6            1827 
         3056.9            1758 
         3057.2            1709 
         3057.5            1677 
         3057.8            1651 
         3058.1            1616 
         3058.4            1571 
         3058.7            1539 
           3059            1562 
         3059.3            1685 
         3059.6            1933 
         3059.9            2299 
         3060.2            2745 
         3060.5            3208 
         3060.8            3629 
         3061.1            3963 
         3061.4            4186 
         3061.7            4286 
           3062            4251 
         3062.3            4063 
         3062.6            3717 
         3062.9            3246 
         3063.2            2726 
         3063.5            2253 
         3063.8            1907 
         3064.1            1719 
         3064.4            1668 
         3064.7            1695 
           3065            1739 
         3065.3            1763 
         3065.6            1765 
         3065.9            1767 
         3066.2            1797 
         3066.5            1876 
         3066.8            2005 
         3067.1            2183 
         3067.4            2413 
         3067.7            2706 
           3068            3059 
         3068.3            3438 
         3068.6            3772 
         3068.9            3971 
         3069.2            3971 
         3069.5            3776 
         3069.8            3467 
         3070.1            3168 
         3070.4            3002 
         3070.7            3038 
           3071            3281 
         3071.3            3676 
         3071.6            4143 
         3071.9            4602 
         3072.2            4990 
         3072.5            5260 
         3072.8            5392 
         3073.1            5394 
         3073.4            5304 
         3073.7            5170 
           3074            5031 
         3074.3            4907 
         3074.6            4817 
         3074.9            4802 
         3075.2            4934 
         3075.5            5274 
         3075.8            5820 
         3076.1            6462 
         3076.4            7015 
         3076.7            7297 
           3077            7221 
         3077.3            6831 
         3077.6            6271 
         3077.9            5704 
         3078.2            5248 
         3078.5            4939 
         3078.8            4738 
         3079.1            4569 
         3079.4            4362 
         3079.7            4078 
           3080            3718 
         3080.3            3312 
         3080.6            2906 
         3080.9            2555 
         3081.2            2308 
         3081.5            2198 
         3081.8            2230 
         3082.1            2369 
         3082.4            2551 
         3082.7            2707 
           3083            2796 
         3083.3            2826 
         3083.6            2847 
         3083.9            2922 
         3084.2            3092 
         3084.5            3362 
         3084.8            3699 
         3085.1            4047 
         3085.4            4343 
         3085.7            4548 
           3086            4671 
         3086.3            4778 
         3086.6            4972 
         3086.9            5345 
         3087.2            5935 
         3087.5            6699 
         3087.8            7498 
         3088.1            8123 
         3088.4            8362 
         3088.7            8087 
           3089            7329 
         3089.3            6277 
         3089.6            5186 
         3089.9            4263 
         3090.2            3589 
         3090.5            3130 
         3090.8            2793 
         3091.1            2499 
         3091.4            2217 
         3091.7            1960 
           3092            1766 
         3092.3            1680 
         3092.6            1733 
         3092.9            1931 
         3093.2            2244 
         3093.5            2612 
         3093.8            2967 
         3094.1            3251 
         3094.4            3436 
         3094.7            3515 
           3095            3496 
         3095.3            3399 
         3095.6            3261 
         3095.9            3152 
         3096.2            3172 
         3096.5            3426 
         3096.8            3970 
         3097.1            4753 
         3097.4            5604 
         3097.7            6272 
           3098            6526 
         3098.3            6260 
         3098.6            5540 
         3098.9            4569 
         3099.2            3593 
         3099.5            2807 
         3099.8            2301 
         3100.1            2061 
         3100.4            2010 
         3100.7            2064 
           3101            2177 
         3101.3            2700 
         3101.6            3261 
         3101.9            4076 
         3102.2            5092 
         3102.5            6177 
         3102.8            7168 
         3103.1            7958 
         3103.4            8517 
         3103.7            8871 
           3104            9025 
         3104.3            8933 
         3104.6            8508 
         3104.9            7722 
         3105.2            6655 
         3105.5            5484 
         3105.8            4414 
         3106.1            3600 
         3106.4            3113 
         3106.7            2942 
           3107            3030 
         3107.3            3290 
         3107.6            3631 
         3107.9            3964 
         3108.2            4218 
         3108.5            4358 
         3108.8            4407 
         3109.1            4442 
         3109.4            4588 
         3109.7            4980 
           3110            5702 
         3110.3            6729 
         3110.6            7893 
         3110.9            8910 
         3111.2            9492 
         3111.5            9460 
         3111.8            8835 
         3112.1            7814 
         3112.4            6687 
         3112.7            5728 
           3113            5135 
         3113.3            5019 
         3113.6            5413 
         3113.9            6278 
         3114.2            7511 
         3114.5            8945 
         3114.8           10360 
         3115.1           11480 
         3115.4           12080 
         3115.7           11980 
           3116           11180 
         3116.3            9867 
         3116.6            8376 
         3116.9            7076 
         3117.2            6224 
         3117.5            5891 
         3117.8            5969 
         3118.1            6249 
         3118.4            6530 
         3118.7            6686 
           3119            6706 
         3119.3            6668 
         3119.6            6694 
         3119.9            6861 
         3120.2            7138 
         3120.5            7380 
         3120.8            7401 
         3121.1            7098 
         3121.4            6540 
         3121.7            5962 
           3122            5660 
         3122.3            5851 
         3122.6            6563 
         3122.9            7620 
         3123.2            8712 
         3123.5            9534 
         3123.8            9917 
         3124.1            9888 
         3124.4            9633 
         3124.7            9380 
           3125            9282 
         3125.3            9360 
         3125.6            9538 
         3125.9            9719 
         3126.2            9833 
         3126.5            9825 
         3126.8            9629 
         3127.1            9173 
         3127.4            8428 
         3127.7            7463 
           3128            6422 
         3128.3            5479 
         3128.6            4763 
         3128.9            4323 
         3129.2            4129 
         3129.5            4114 
         3129.8            4215 
         3130.1            4418 
         3130.4            4751 
         3130.7            5247 
           3131            5877 
         3131.3            6523 
         3131.6            7003 
         3131.9            7161 
         3132.2            6941 
         3132.5            6433 
         3132.8            5826 
         3133.1            5348 
         3133.4            5207 
         3133.7            5529 
           3134            6315 
         3134.3            7390 
         3134.6            8438 
         3134.9            9107 
         3135.2            9177 
         3135.5            8684 
         3135.8            7897 
         3136.1            7187 
         3136.4            6880 
         3136.7            7146 
           3137            7992 
         3137.3            9281 
         3137.6           10780 
         3137.9           12200 
         3138.2           13300 
         3138.5           13940 
         3138.8           14090 
         3139.1           13860 
         3139.4           13450 
         3139.7           13080 
           3140           12910 
         3140.3           13000 
         3140.6           13250 
         3140.9           13480 
         3141.2           13600 
         3141.5           13620 
         3141.8           13550 
         3142.1           13400 
         3142.4           13010 
         3142.7           12240 
           3143           11080 
         3143.3            9714 
         3143.6            8386 
         3143.9            7303 
         3144.2            6528 
         3144.5            6018 
         3144.8            5694 
         3145.1            5494 
         3145.4            5384 
         3145.7            5335 
           3146            5332 
         3146.3            5393 
         3146.6            5585 
         3146.9            6023 
         3147.2            6865 
         3147.5            8276 
         3147.8           10360 
         3148.1           13060 
         3148.4           16040 
         3148.7           18780 
           3149           20740 
         3149.3           21610 
         3149.6           21390 
         3149.9           20330 
         3150.2           18770 
         3150.5           16900 
         3150.8           14880 
         3151.1           12830 
         3151.4           10820 
         3151.7            9022 
           3152            7516 
         3152.3            6361 
         3152.6            5564 
         3152.9            5110 
         3153.2            5008 
         3153.5            5302 
         3153.8            6042 
         3154.1            7198 
         3154.4            8586 
         3154.7            9867 
           3155           10670 
         3155.3           10770 
         3155.6           10200 
         3155.9            9251 
         3156.2            8260 
         3156.5            7503 
         3156.8            7100 
         3157.1            7036 
         3157.4            7227 
         3157.7            7594 
           3158            8091 
         3158.3            8696 
         3158.6            9363 
         3158.9            9973 
         3159.2           10340 
         3159.5           10310 
         3159.8            9823 
         3160.1            9011 
         3160.4            8155 
         3160.7            7571 
           3161            7525 
         3161.3            8210 
         3161.6            9752 
         3161.9           12190 
         3162.2           15360 
         3162.5           18780 
         3162.8           21740 
         3163.1           23490 
         3163.4           23590 
         3163.7           22170 
           3164           19790 
         3164.3           17130 
         3164.6           14750 
         3164.9           12900 
         3165.2           11710 
         3165.5           11240 
         3165.8           11530 
         3166.1           12640 
         3166.4           14530 
         3166.7           16950 
           3167           19510 
         3167.3           21620 
         3167.6           22760 
         3167.9           22690 
         3168.2           21600 
         3168.5           19990 
         3168.8           18530 
         3169.1           17670 
         3169.4           17550 
         3169.7           17980 
           3170           18710 
         3170.3           19570 
         3170.6           20570 
         3170.9           21890 
         3171.2           23700 
         3171.5           25960 
         3171.8           28250 
         3172.1           29970 
         3172.4           30730 
         3172.7           30670 
           3173           30550 
         3173.3           31280 
         3173.6           33410 
         3173.9           36750 
         3174.2           40670 
         3174.5           44480 
         3174.8           47900 
         3175.1           50880 
         3175.4           53250 
         3175.7           54490 
           3176           53980 
         3176.3           51300 
         3176.6           46690 
         3176.9           41010 
         3177.2           35510 
         3177.5           31240 
         3177.8           28670 
         3178.1           27470 
