# Granada HRES Library
# atmosphere = Phoenix  (atmosphere model used)
# feh = 3  (value for [Fe/H] for the model.)
# logg = 1.5 log(cm/s2) (value for Log(G) for the model.)
# teff = 4000 K (value for the effective temperature for the model. Temperatures are given in K)
#
# column 1: WAVELENGTH (ANGSTROM), Wavelength in Angstrom
# column 2: FLUX (ERG/CM2/S/A), Flux in erg/cm2/s/A
         3000.2           497.2 
         3000.5             448 
         3000.8           417.1 
         3001.1             402 
         3001.4             396 
         3001.7           391.7 
           3002             385 
         3002.3           378.2 
         3002.6           379.6 
         3002.9           400.3 
         3003.2           448.7 
         3003.5           527.7 
         3003.8           633.6 
         3004.1           756.9 
         3004.4           884.5 
         3004.7            1003 
           3005            1098 
         3005.3            1161 
         3005.6            1184 
         3005.9            1165 
         3006.2            1106 
         3006.5            1017 
         3006.8             916 
         3007.1           818.7 
         3007.4           742.4 
         3007.7           699.4 
           3008           695.5 
         3008.3           729.7 
         3008.6           796.6 
         3008.9           888.7 
         3009.2           999.9 
         3009.5            1121 
         3009.8            1236 
         3010.1            1325 
         3010.4            1365 
         3010.7            1343 
           3011            1271 
         3011.3            1177 
         3011.6            1096 
         3011.9            1054 
         3012.2            1059 
         3012.5            1095 
         3012.8            1138 
         3013.1            1168 
         3013.4            1174 
         3013.7            1157 
           3014            1129 
         3014.3            1103 
         3014.6            1090 
         3014.9            1096 
         3015.2            1117 
         3015.5            1144 
         3015.8            1170 
         3016.1            1188 
         3016.4            1194 
         3016.7            1181 
           3017            1147 
         3017.3            1095 
         3017.6            1030 
         3017.9           958.9 
         3018.2           885.4 
         3018.5           808.8 
         3018.8           727.5 
         3019.1           641.5 
         3019.4           554.2 
         3019.7           471.3 
           3020           399.9 
         3020.3           348.1 
         3020.6           323.6 
         3020.9           331.7 
         3021.2           373.9 
         3021.5           445.9 
         3021.8           537.8 
         3022.1           635.4 
         3022.4             723 
         3022.7           785.6 
           3023           813.9 
         3023.3           806.2 
         3023.6           770.2 
         3023.9           720.2 
         3024.2           670.3 
         3024.5           629.6 
         3024.8           600.1 
         3025.1           579.4 
         3025.4           567.3 
         3025.7             568 
           3026           587.2 
         3026.3           627.5 
         3026.6           685.4 
         3026.9           751.3 
         3027.2           814.8 
         3027.5           869.4 
         3027.8           915.1 
         3028.1           957.5 
         3028.4            1005 
         3028.7            1061 
           3029            1124 
         3029.3            1182 
         3029.6            1222 
         3029.9            1237 
         3030.2            1230 
         3030.5            1220 
         3030.8            1236 
         3031.1            1308 
         3031.4            1445 
         3031.7            1629 
           3032            1817 
         3032.3            1953 
         3032.6            1997 
         3032.9            1939 
         3033.2            1805 
         3033.5            1637 
         3033.8            1479 
         3034.1            1359 
         3034.4            1289 
         3034.7            1264 
           3035            1263 
         3035.3            1260 
         3035.6            1234 
         3035.9            1173 
         3036.2            1079 
         3036.5           968.7 
         3036.8             863 
         3037.1           785.3 
         3037.4           752.8 
         3037.7           770.4 
           3038           829.4 
         3038.3           912.9 
         3038.6            1004 
         3038.9            1093 
         3039.2            1178 
         3039.5            1258 
         3039.8            1330 
         3040.1            1383 
         3040.4            1409 
         3040.7            1405 
           3041            1377 
         3041.3            1342 
         3041.6            1324 
         3041.9            1341 
         3042.2            1397 
         3042.5            1477 
         3042.8            1557 
         3043.1            1612 
         3043.4            1636 
         3043.7            1637 
           3044            1634 
         3044.3            1643 
         3044.6            1672 
         3044.9            1712 
         3045.2            1746 
         3045.5            1749 
         3045.8            1699 
         3046.1            1586 
         3046.4            1418 
         3046.7            1219 
           3047            1022 
         3047.3           859.9 
         3047.6           757.1 
         3047.9           724.4 
         3048.2           759.2 
         3048.5           848.4 
         3048.8           969.7 
         3049.1            1094 
         3049.4            1192 
         3049.7            1240 
           3050            1234 
         3050.3            1187 
         3050.6            1123 
         3050.9            1067 
         3051.2            1035 
         3051.5            1029 
         3051.8            1043 
         3052.1            1063 
         3052.4            1076 
         3052.7            1075 
           3053            1054 
         3053.3            1021 
         3053.6           983.7 
         3053.9           953.8 
         3054.2           936.7 
         3054.5           931.7 
         3054.8           932.6 
         3055.1           931.5 
         3055.4           922.3 
         3055.7             903 
           3056           875.7 
         3056.3           845.7 
         3056.6           819.3 
         3056.9           801.3 
         3057.2           792.9 
         3057.5           790.9 
         3057.8             788 
         3058.1           777.4 
         3058.4           758.6 
         3058.7           741.5 
           3059           744.5 
         3059.3           786.8 
         3059.6           879.1 
         3059.9            1018 
         3060.2            1185 
         3060.5            1352 
         3060.8            1493 
         3061.1            1590 
         3061.4            1635 
         3061.7            1633 
           3062            1592 
         3062.3            1518 
         3062.6            1416 
         3062.9            1299 
         3063.2            1184 
         3063.5            1092 
         3063.8            1040 
         3064.1            1028 
         3064.4            1045 
         3064.7            1068 
           3065            1079 
         3065.3            1074 
         3065.6            1060 
         3065.9            1054 
         3066.2            1067 
         3066.5            1103 
         3066.8            1156 
         3067.1            1221 
         3067.4            1297 
         3067.7            1392 
           3068            1509 
         3068.3            1641 
         3068.6            1765 
         3068.9            1848 
         3069.2            1865 
         3069.5            1812 
         3069.8            1711 
         3070.1            1598 
         3070.4            1510 
         3070.7            1471 
           3071            1490 
         3071.3            1564 
         3071.6            1681 
         3071.9            1827 
         3072.2            1984 
         3072.5            2127 
         3072.8            2234 
         3073.1            2290 
         3073.4            2293 
         3073.7            2254 
           3074            2184 
         3074.3            2099 
         3074.6            2014 
         3074.9            1952 
         3075.2            1940 
         3075.5            2000 
         3075.8            2130 
         3076.1            2293 
         3076.4            2433 
         3076.7            2493 
           3077            2453 
         3077.3            2328 
         3077.6            2164 
         3077.9            2005 
         3078.2            1884 
         3078.5            1805 
         3078.8            1755 
         3079.1            1712 
         3079.4            1657 
         3079.7            1581 
           3080            1485 
         3080.3            1376 
         3080.6            1267 
         3080.9            1176 
         3081.2            1115 
         3081.5            1096 
         3081.8            1121 
         3082.1            1178 
         3082.4            1246 
         3082.7            1301 
           3083            1328 
         3083.3            1328 
         3083.6            1326 
         3083.9            1350 
         3084.2            1427 
         3084.5            1567 
         3084.8            1760 
         3085.1            1979 
         3085.4            2192 
         3085.7            2377 
           3086            2532 
         3086.3            2666 
         3086.6            2792 
         3086.9            2913 
         3087.2            3021 
         3087.5            3103 
         3087.8            3141 
         3088.1            3113 
         3088.4            2998 
         3088.7            2793 
           3089            2527 
         3089.3            2256 
         3089.6            2038 
         3089.9            1899 
         3090.2            1826 
         3090.5            1773 
         3090.8            1692 
         3091.1            1563 
         3091.4            1393 
         3091.7            1215 
           3092            1069 
         3092.3           987.4 
         3092.6           988.4 
         3092.9            1073 
         3093.2            1222 
         3093.5            1403 
         3093.8            1580 
         3094.1            1724 
         3094.4            1822 
         3094.7            1873 
           3095            1885 
         3095.3            1871 
         3095.6            1845 
         3095.9            1827 
         3096.2            1849 
         3096.5            1951 
         3096.8            2160 
         3097.1            2471 
         3097.4            2830 
         3097.7            3136 
           3098            3282 
         3098.3            3200 
         3098.6            2897 
         3098.9            2450 
         3099.2            1973 
         3099.5            1564 
         3099.8            1279 
         3100.1            1122 
         3100.4            1062 
         3100.7            1061 
           3101            1102 
         3101.3            1365 
         3101.6            1661 
         3101.9            2087 
         3102.2            2606 
         3102.5            3133 
         3102.8            3574 
         3103.1            3863 
         3103.4            3999 
         3103.7            4025 
           3104            3992 
         3104.3            3914 
         3104.6            3764 
         3104.9            3501 
         3105.2            3123 
         3105.5            2671 
         3105.8            2221 
         3106.1            1844 
         3106.4            1583 
         3106.7            1451 
           3107            1442 
         3107.3            1531 
         3107.6            1692 
         3107.9            1891 
         3108.2            2091 
         3108.5            2250 
         3108.8            2342 
         3109.1            2358 
         3109.4            2316 
         3109.7            2262 
           3110            2242 
         3110.3            2285 
         3110.6            2380 
         3110.9            2479 
         3111.2            2523 
         3111.5            2470 
         3111.8            2318 
         3112.1            2105 
         3112.4            1889 
         3112.7            1725 
           3113            1646 
         3113.3            1673 
         3113.6            1810 
         3113.9            2060 
         3114.2            2428 
         3114.5            2907 
         3114.8            3462 
         3115.1            4015 
         3115.4            4454 
         3115.7            4666 
           3116            4591 
         3116.3            4255 
         3116.6            3771 
         3116.9            3287 
         3117.2            2923 
         3117.5            2737 
         3117.8            2714 
         3118.1            2791 
         3118.4            2896 
         3118.7            2969 
           3119            2988 
         3119.3            2964 
         3119.6            2936 
         3119.9            2941 
         3120.2            2987 
         3120.5            3052 
         3120.8            3091 
         3121.1            3083 
         3121.4            3047 
         3121.7            3055 
           3122            3188 
         3122.3            3492 
         3122.6            3942 
         3122.9            4436 
         3123.2            4841 
         3123.5            5056 
         3123.8            5063 
         3124.1            4933 
         3124.4            4780 
         3124.7            4700 
           3125            4717 
         3125.3            4781 
         3125.6            4816 
         3125.9            4764 
         3126.2            4625 
         3126.5            4434 
         3126.8            4233 
         3127.1            4039 
         3127.4            3833 
         3127.7            3593 
           3128            3306 
         3128.3            2985 
         3128.6            2670 
         3128.9            2402 
         3129.2            2209 
         3129.5            2101 
         3129.8            2069 
         3130.1            2116 
         3130.4            2260 
         3130.7            2516 
           3131            2871 
         3131.3            3272 
         3131.6            3629 
         3131.9            3848 
         3132.2            3870 
         3132.5            3700 
         3132.8            3402 
         3133.1            3072 
         3133.4            2813 
         3133.7            2696 
           3134            2741 
         3134.3            2907 
         3134.6            3103 
         3134.9            3233 
         3135.2            3239 
         3135.5            3133 
         3135.8            2984 
         3136.1            2876 
         3136.4            2873 
         3136.7            2994 
           3137            3221 
         3137.3            3516 
         3137.6            3823 
         3137.9            4088 
         3138.2            4265 
         3138.5            4334 
         3138.8            4302 
         3139.1            4211 
         3139.4            4124 
         3139.7            4108 
           3140            4207 
         3140.3            4422 
         3140.6            4700 
         3140.9            4970 
         3141.2            5178 
         3141.5            5311 
         3141.8            5379 
         3142.1            5369 
         3142.4            5239 
         3142.7            4951 
           3143            4514 
         3143.3            3999 
         3143.6            3505 
         3143.9            3109 
         3144.2            2831 
         3144.5            2652 
         3144.8            2538 
         3145.1            2472 
         3145.4            2454 
         3145.7            2491 
           3146            2590 
         3146.3            2745 
         3146.6            2937 
         3146.9            3148 
         3147.2            3370 
         3147.5            3626 
         3147.8            3966 
         3148.1            4446 
         3148.4            5088 
         3148.7            5857 
           3149            6663 
         3149.3            7395 
         3149.6            7943 
         3149.9            8207 
         3150.2            8116 
         3150.5            7649 
         3150.8            6872 
         3151.1            5928 
         3151.4            4982 
         3151.7            4161 
           3152            3517 
         3152.3            3035 
         3152.6            2674 
         3152.9            2405 
         3153.2            2225 
         3153.5            2154 
         3153.8            2218 
         3154.1            2419 
         3154.4            2723 
         3154.7            3063 
           3155            3371 
         3155.3            3597 
         3155.6            3737 
         3155.9            3804 
         3156.2            3813 
         3156.5            3766 
         3156.8            3671 
         3157.1            3548 
         3157.4            3434 
         3157.7            3379 
           3158            3425 
         3158.3            3589 
         3158.6            3847 
         3158.9            4131 
         3159.2            4343 
         3159.5            4395 
         3159.8            4256 
         3160.1            3972 
         3160.4            3637 
         3160.7            3355 
           3161            3196 
         3161.3            3200 
         3161.6            3387 
         3161.9            3771 
         3162.2            4344 
         3162.5            5044 
         3162.8            5749 
         3163.1            6310 
         3163.4            6621 
         3163.7            6656 
           3164            6461 
         3164.3            6108 
         3164.6            5669 
         3164.9            5204 
         3165.2            4776 
         3165.5            4455 
         3165.8            4309 
         3166.1            4382 
         3166.4            4685 
         3166.7            5172 
           3167            5742 
         3167.3            6253 
         3167.6            6562 
         3167.9            6587 
         3168.2            6353 
         3168.5            5986 
         3168.8            5646 
         3169.1            5442 
         3169.4            5388 
         3169.7            5423 
           3170            5470 
         3170.3            5493 
         3170.6            5524 
         3170.9            5631 
         3171.2            5865 
         3171.5            6213 
         3171.8            6593 
         3172.1            6918 
         3172.4            7169 
         3172.7            7443 
           3173            7908 
         3173.3            8683 
         3173.6            9724 
         3173.9           10800 
         3174.2           11640 
         3174.5           12030 
         3174.8           11990 
         3175.1           11640 
         3175.4           11140 
         3175.7           10570 
           3176            9928 
         3176.3            9214 
         3176.6            8474 
         3176.9            7793 
         3177.2            7243 
         3177.5            6853 
         3177.8            6591 
         3178.1            6383 
