# Granada HRES Library
# atmosphere = Spectrum  (atmosphere model used)
# feh = 3  (value for [Fe/H] for the model.)
# logg = 0 log(cm/s2) (value for Log(G) for the model.)
# teff = 5000 K (value for the effective temperature for the model. Temperatures are given in K)
#
# column 1: WAVELENGTH (ANGSTROM), Wavelength in Angstrom
# column 2: FLUX (ERG/CM2/S/A), Flux in erg/cm2/s/A
         3000.2            8724 
         3000.5            9202 
         3000.8            9919 
         3001.1           10970 
         3001.4           12390 
         3001.7           14410 
           3002           17270 
         3002.3           21410 
         3002.6           27290 
         3002.9           35450 
         3003.2           46290 
         3003.5           59950 
         3003.8           76110 
         3004.1           93910 
         3004.4          112000 
         3004.7          128500 
           3005          141600 
         3005.3          149500 
         3005.6          151100 
         3005.9          146000 
         3006.2          134800 
         3006.5          118900 
         3006.8          100500 
         3007.1           81870 
         3007.4           65220 
         3007.7           52200 
           3008           43860 
         3008.3           40650 
         3008.6           42550 
         3008.9           49100 
         3009.2           59530 
         3009.5           72720 
         3009.8           87180 
         3010.1          101300 
         3010.4          113500 
         3010.7          122800 
           3011          128500 
         3011.3          131100 
         3011.6          131700 
         3011.9          131500 
         3012.2          131500 
         3012.5          132300 
         3012.8          133900 
         3013.1          135800 
         3013.4          137100 
         3013.7          137300 
           3014          135900 
         3014.3          132600 
         3014.6          127600 
         3014.9          120900 
         3015.2          112900 
         3015.5          104000 
         3015.8           94580 
         3016.1           84900 
         3016.4           75180 
         3016.7           65580 
           3017           56280 
         3017.3           47440 
         3017.6           39260 
         3017.9           31910 
         3018.2           25530 
         3018.5           20110 
         3018.8           15640 
         3019.1           12010 
         3019.4            9139 
         3019.7            6968 
           3020            5460 
         3020.3            4622 
         3020.6            4479 
         3020.9            5100 
         3021.2            6481 
         3021.5            8592 
         3021.8           11350 
         3022.1           14580 
         3022.4           18080 
         3022.7           21590 
           3023           24850 
         3023.3           27660 
         3023.6           29870 
         3023.9           31430 
         3024.2           32400 
         3024.5           33100 
         3024.8           34050 
         3025.1           36000 
         3025.4           39870 
         3025.7           46680 
           3026           57190 
         3026.3           71690 
         3026.6           89830 
         3026.9          110600 
         3027.2          132300 
         3027.5          153000 
         3027.8          170700 
         3028.1          183800 
         3028.4          191400 
         3028.7          193300 
           3029          190300 
         3029.3          183600 
         3029.6          175000 
         3029.9          165900 
         3030.2          157800 
         3030.5          151600 
         3030.8          148300 
         3031.1          148700 
         3031.4          153200 
         3031.7          161600 
           3032          173200 
         3032.3          186700 
         3032.6          200300 
         3032.9          212700 
         3033.2          222800 
         3033.5          229900 
         3033.8          234000 
         3034.1          235000 
         3034.4          232700 
         3034.7          226900 
           3035          216900 
         3035.3          202400 
         3035.6          183300 
         3035.9          160600 
         3036.2          135900 
         3036.5          111500 
         3036.8           89760 
         3037.1           72830 
         3037.4           62120 
         3037.7           58120 
           3038           60520 
         3038.3           68190 
         3038.6           79470 
         3038.9           92440 
         3039.2          105200 
         3039.5          116400 
         3039.8          124600 
         3040.1          129300 
         3040.4          130500 
         3040.7          128700 
           3041          124900 
         3041.3          120500 
         3041.6          117000 
         3041.9          115800 
         3042.2          117800 
         3042.5          122900 
         3042.8          130500 
         3043.1          139000 
         3043.4          146800 
         3043.7          152300 
           3044          154700 
         3044.3          153700 
         3044.6          149500 
         3044.9          142500 
         3045.2          133200 
         3045.5          122100 
         3045.8          109700 
         3046.1           96370 
         3046.4           82940 
         3046.7           70470 
           3047           60180 
         3047.3           53320 
         3047.6           50850 
         3047.9           53100 
         3048.2           59700 
         3048.5           69530 
         3048.8           81220 
         3049.1           93210 
         3049.4          104400 
         3049.7          114600 
           3050          124600 
         3050.3          135800 
         3050.6          149500 
         3050.9          166300 
         3051.2          185600 
         3051.5          205200 
         3051.8          222000 
         3052.1          232800 
         3052.4          235300 
         3052.7          228900 
           3053          215000 
         3053.3          196400 
         3053.6          176700 
         3053.9          159500 
         3054.2          147000 
         3054.5          140000 
         3054.8          137500 
         3055.1          137600 
         3055.4          137500 
         3055.7          134900 
           3056          128300 
         3056.3          117400 
         3056.6          102900 
         3056.9           86440 
         3057.2           69920 
         3057.5           55100 
         3057.8           43300 
         3058.1           35390 
         3058.4           31860 
         3058.7           33120 
           3059           39280 
         3059.3           50550 
         3059.6           66680 
         3059.9           87140 
         3060.2          110800 
         3060.5          135900 
         3060.8          160300 
         3061.1          182000 
         3061.4          199000 
         3061.7          210100 
           3062          214700 
         3062.3          213100 
         3062.6          206200 
         3062.9          195600 
         3063.2          183200 
         3063.5          170700 
         3063.8          159500 
         3064.1          150000 
         3064.4          142200 
         3064.7          135300 
           3065          128300 
         3065.3          120400 
         3065.6          111500 
         3065.9          102300 
         3066.2           94190 
         3066.5           89080 
         3066.8           89020 
         3067.1           95770 
         3067.4          110000 
         3067.7          131600 
           3068          159000 
         3068.3          189800 
         3068.6          220600 
         3068.9          248200 
         3069.2          269500 
         3069.5          282600 
         3069.8          286800 
         3070.1          282600 
         3070.4          271400 
         3070.7          255000 
           3071          235300 
         3071.3          214000 
         3071.6          193000 
         3071.9          174000 
         3072.2          158500 
         3072.5          147600 
         3072.8          141500 
         3073.1          139300 
         3073.4          139700 
         3073.7          140900 
           3074          141300 
         3074.3          140400 
         3074.6          138900 
         3074.9          138200 
         3075.2          140100 
         3075.5          145900 
         3075.8          155600 
         3076.1          167700 
         3076.4          179700 
         3076.7          188900 
           3077          193200 
         3077.3          191800 
         3077.6          185700 
         3077.9          177300 
         3078.2          169400 
         3078.5          164800 
         3078.8          165400 
         3079.1          171600 
         3079.4          182200 
         3079.7          195000 
           3080          207400 
         3080.3          217100 
         3080.6          222500 
         3080.9          223200 
         3081.2          219900 
         3081.5          213600 
         3081.8          206600 
         3082.1          200500 
         3082.4          197200 
         3082.7          198400 
           3083          205200 
         3083.3          218800 
         3083.6          239400 
         3083.9          266200 
         3084.2          297400 
         3084.5          329600 
         3084.8          358800 
         3085.1          380400 
         3085.4          390700 
         3085.7          387300 
           3086          370000 
         3086.3          340800 
         3086.6          303300 
         3086.9          262700 
         3087.2          223900 
         3087.5          190800 
         3087.8          165900 
         3088.1          150300 
         3088.4          143100 
         3088.7          142700 
           3089          147000 
         3089.3          153700 
         3089.6          161000 
         3089.9          167700 
         3090.2          173100 
         3090.5          176900 
         3090.8          178900 
         3091.1          179100 
         3091.4          177500 
         3091.7          174100 
           3092          169300 
         3092.3          164000 
         3092.6          159700 
         3092.9          158100 
         3093.2          160600 
         3093.5          168000 
         3093.8          179300 
         3094.1          192700 
         3094.4          205300 
         3094.7          214600 
           3095          218800 
         3095.3          217600 
         3095.6          211900 
         3095.9          203900 
         3096.2          195900 
         3096.5          190000 
         3096.8          187100 
         3097.1          186600 
         3097.4          186800 
         3097.7          185300 
           3098          179900 
         3098.3          169000 
         3098.6          152700 
         3098.9          132200 
         3099.2          110000 
         3099.5           88310 
         3099.8           69560 
         3100.1           55310 
         3100.4           46540 
         3100.7           43640 
           3101           46790 
         3101.3           55860 
         3101.6           70630 
         3101.9           90350 
         3102.2          113900 
         3102.5          139300 
         3102.8          164500 
         3103.1          187100 
         3103.4          205400 
         3103.7          217900 
           3104          224500 
         3104.3          226200 
         3104.6          224700 
         3104.9          222300 
         3105.2          221900 
         3105.5          225800 
         3105.8          235500 
         3106.1          251300 
         3106.4          272200 
         3106.7          296400 
           3107          321100 
         3107.3          344000 
         3107.6          362800 
         3107.9          375700 
         3108.2          381600 
         3108.5          380300 
         3108.8          372100 
         3109.1          358300 
         3109.4          341000 
         3109.7          323500 
           3110          309400 
         3110.3          301900 
         3110.6          302900 
         3110.9          312300 
         3111.2          328100 
         3111.5          346700 
         3111.8          363500 
         3112.1          375000 
         3112.4          378500 
         3112.7          373600 
           3113          361600 
         3113.3          345100 
         3113.6          327500 
         3113.9          311700 
         3114.2          299600 
         3114.5          291600 
         3114.8          287300 
         3115.1          285000 
         3115.4          282900 
         3115.7          279300 
           3116          273200 
         3116.3          264000 
         3116.6          251900 
         3116.9          237600 
         3117.2          222000 
         3117.5          206300 
         3117.8          191700 
         3118.1          179300 
         3118.4          169700 
         3118.7          163200 
           3119          159900 
         3119.3          159700 
         3119.6          162300 
         3119.9          167700 
         3120.2          175300 
         3120.5          184400 
         3120.8          194000 
         3121.1          202800 
         3121.4          210200 
         3121.7          216000 
           3122          220500 
         3122.3          224800 
         3122.6          229300 
         3122.9          234400 
         3123.2          239700 
         3123.5          244000 
         3123.8          245700 
         3124.1          244100 
         3124.4          239200 
         3124.7          232700 
           3125          227000 
         3125.3          225700 
         3125.6          231200 
         3125.9          244600 
         3126.2          264500 
         3126.5          287700 
         3126.8          310200 
         3127.1          327800 
         3127.4          337600 
         3127.7          338100 
           3128          330300 
         3128.3          316100 
         3128.6          298300 
         3128.9          279400 
         3129.2          261300 
         3129.5          244900 
         3129.8          230600 
         3130.1          218600 
         3130.4          208600 
         3130.7          200700 
           3131          194300 
         3131.3          189100 
         3131.6          184300 
         3131.9          179100 
         3132.2          173200 
         3132.5          167000 
         3132.8          161300 
         3133.1          157400 
         3133.4          157100 
         3133.7          161800 
           3134          172400 
         3134.3          188600 
         3134.6          208900 
         3134.9          231000 
         3135.2          252300 
         3135.5          270500 
         3135.8          284500 
         3136.1          294300 
         3136.4          301100 
         3136.7          306200 
           3137          311000 
         3137.3          316200 
         3137.6          321500 
         3137.9          326900 
         3138.2          331900 
         3138.5          336300 
         3138.8          340700 
         3139.1          345700 
         3139.4          352100 
         3139.7          360400 
           3140          370500 
         3140.3          381300 
         3140.6          390700 
         3140.9          396000 
         3141.2          394600 
         3141.5          384700 
         3141.8          366000 
         3142.1          339300 
         3142.4          307000 
         3142.7          271800 
           3143          236500 
         3143.3          203900 
         3143.6          176100 
         3143.9          154800 
         3144.2          140800 
         3144.5          134300 
         3144.8          134600 
         3145.1          140500 
         3145.4          150000 
         3145.7          161000 
           3146          172100 
         3146.3          182300 
         3146.6          192300 
         3146.9          203200 
         3147.2          216700 
         3147.5          234300 
         3147.8          256600 
         3148.1          282800 
         3148.4          311100 
         3148.7          339500 
           3149          365600 
         3149.3          387900 
         3149.6          405500 
         3149.9          418200 
         3150.2          425600 
         3150.5          427800 
         3150.8          425100 
         3151.1          418300 
         3151.4          408700 
         3151.7          398000 
           3152          388200 
         3152.3          380300 
         3152.6          374500 
         3152.9          370100 
         3153.2          365300 
         3153.5          359200 
         3153.8          350800 
         3154.1          340500 
         3154.4          329100 
         3154.7          318000 
           3155          308300 
         3155.3          300200 
         3155.6          293300 
         3155.9          286700 
         3156.2          278900 
         3156.5          268700 
         3156.8          255700 
         3157.1          240000 
         3157.4          222700 
         3157.7          205400 
           3158          189800 
         3158.3          177200 
         3158.6          168200 
         3158.9          162500 
         3159.2          159100 
         3159.5          156600 
         3159.8          153200 
         3160.1          147900 
         3160.4          140500 
         3160.7          132000 
           3161          124200 
         3161.3          119300 
         3161.6          119600 
         3161.9          126700 
         3162.2          140800 
         3162.5          160800 
         3162.8          184600 
         3163.1          209000 
         3163.4          230900 
         3163.7          247700 
           3164          258100 
         3164.3          262600 
         3164.6          262700 
         3164.9          260800 
         3165.2          259200 
         3165.5          259200 
         3165.8          261200 
         3166.1          264100 
         3166.4          266400 
         3166.7          266000 
           3167          261700 
         3167.3          253200 
         3167.6          241500 
         3167.9          229300 
         3168.2          219700 
         3168.5          215900 
         3168.8          220100 
         3169.1          233000 
         3169.4          253500 
         3169.7          279400 
           3170          308300 
         3170.3          337600 
         3170.6          365800 
         3170.9          391800 
         3171.2          415500 
         3171.5          436800 
         3171.8          455200 
         3172.1          469900 
         3172.4          479600 
         3172.7          483500 
           3173          481400 
         3173.3          473900 
         3173.6          463000 
         3173.9          451100 
         3174.2          441000 
         3174.5          435300 
         3174.8          435400 
         3175.1          441500 
         3175.4          452200 
         3175.7          464400 
           3176          473900 
         3176.3          476900 
         3176.6          470300 
         3176.9          452900 
         3177.2          425900 
         3177.5          391600 
         3177.8          353700 
         3178.1          315600 
