# Granada HRES Library
# atmosphere = Spectrum  (atmosphere model used)
# feh = 0  (value for [Fe/H] for the model.)
# logg = 0.5 log(cm/s2) (value for Log(G) for the model.)
# teff = 6750 K (value for the effective temperature for the model. Temperatures are given in K)
#
# column 1: WAVELENGTH (ANGSTROM), Wavelength in Angstrom
# column 2: FLUX (ERG/CM2/S/A), Flux in erg/cm2/s/A
         3000.2         4.56e+6 
         3000.5        4.478e+6 
         3000.8        4.386e+6 
         3001.1         4.28e+6 
         3001.4        4.158e+6 
         3001.7        4.023e+6 
           3002        3.891e+6 
         3002.3        3.781e+6 
         3002.6        3.721e+6 
         3002.9        3.729e+6 
         3003.2        3.815e+6 
         3003.5        3.976e+6 
         3003.8        4.195e+6 
         3004.1        4.449e+6 
         3004.4        4.713e+6 
         3004.7        4.963e+6 
           3005        5.177e+6 
         3005.3        5.341e+6 
         3005.6        5.446e+6 
         3005.9         5.49e+6 
         3006.2        5.476e+6 
         3006.5         5.41e+6 
         3006.8        5.301e+6 
         3007.1         5.16e+6 
         3007.4        5.005e+6 
         3007.7        4.855e+6 
           3008        4.732e+6 
         3008.3         4.66e+6 
         3008.6        4.652e+6 
         3008.9        4.714e+6 
         3009.2        4.833e+6 
         3009.5        4.985e+6 
         3009.8        5.142e+6 
         3010.1        5.277e+6 
         3010.4        5.374e+6 
         3010.7        5.425e+6 
           3011        5.435e+6 
         3011.3        5.414e+6 
         3011.6        5.377e+6 
         3011.9        5.337e+6 
         3012.2        5.298e+6 
         3012.5        5.265e+6 
         3012.8        5.237e+6 
         3013.1        5.211e+6 
         3013.4        5.184e+6 
         3013.7        5.151e+6 
           3014        5.107e+6 
         3014.3        5.048e+6 
         3014.6        4.976e+6 
         3014.9        4.896e+6 
         3015.2        4.823e+6 
         3015.5        4.768e+6 
         3015.8        4.743e+6 
         3016.1         4.75e+6 
         3016.4        4.785e+6 
         3016.7        4.839e+6 
           3017        4.897e+6 
         3017.3        4.949e+6 
         3017.6        4.983e+6 
         3017.9        4.992e+6 
         3018.2        4.969e+6 
         3018.5         4.91e+6 
         3018.8        4.815e+6 
         3019.1        4.686e+6 
         3019.4        4.534e+6 
         3019.7        4.378e+6 
           3020         4.24e+6 
         3020.3        4.148e+6 
         3020.6        4.128e+6 
         3020.9        4.196e+6 
         3021.2        4.349e+6 
         3021.5        4.568e+6 
         3021.8        4.816e+6 
         3022.1        5.053e+6 
         3022.4        5.243e+6 
         3022.7        5.365e+6 
           3023        5.411e+6 
         3023.3        5.393e+6 
         3023.6        5.328e+6 
         3023.9        5.233e+6 
         3024.2        5.117e+6 
         3024.5        4.987e+6 
         3024.8        4.849e+6 
         3025.1        4.714e+6 
         3025.4        4.601e+6 
         3025.7        4.531e+6 
           3026        4.523e+6 
         3026.3        4.582e+6 
         3026.6          4.7e+6 
         3026.9        4.859e+6 
         3027.2        5.034e+6 
         3027.5        5.201e+6 
         3027.8        5.339e+6 
         3028.1        5.434e+6 
         3028.4        5.477e+6 
         3028.7        5.466e+6 
           3029        5.408e+6 
         3029.3        5.315e+6 
         3029.6        5.203e+6 
         3029.9        5.087e+6 
         3030.2        4.982e+6 
         3030.5        4.899e+6 
         3030.8        4.843e+6 
         3031.1        4.821e+6 
         3031.4         4.83e+6 
         3031.7        4.863e+6 
           3032        4.904e+6 
         3032.3        4.938e+6 
         3032.6        4.953e+6 
         3032.9        4.947e+6 
         3033.2        4.928e+6 
         3033.5        4.909e+6 
         3033.8        4.904e+6 
         3034.1        4.924e+6 
         3034.4         4.97e+6 
         3034.7        5.035e+6 
           3035        5.103e+6 
         3035.3        5.154e+6 
         3035.6        5.169e+6 
         3035.9        5.136e+6 
         3036.2        5.053e+6 
         3036.5        4.931e+6 
         3036.8        4.788e+6 
         3037.1        4.649e+6 
         3037.4        4.533e+6 
         3037.7        4.461e+6 
           3038        4.441e+6 
         3038.3        4.477e+6 
         3038.6        4.563e+6 
         3038.9        4.683e+6 
         3039.2        4.816e+6 
         3039.5        4.938e+6 
         3039.8        5.027e+6 
         3040.1        5.071e+6 
         3040.4        5.065e+6 
         3040.7        5.015e+6 
           3041        4.937e+6 
         3041.3        4.847e+6 
         3041.6        4.761e+6 
         3041.9        4.689e+6 
         3042.2        4.635e+6 
         3042.5        4.599e+6 
         3042.8        4.573e+6 
         3043.1        4.551e+6 
         3043.4        4.528e+6 
         3043.7        4.507e+6 
           3044        4.494e+6 
         3044.3        4.498e+6 
         3044.6        4.529e+6 
         3044.9        4.589e+6 
         3045.2        4.675e+6 
         3045.5        4.773e+6 
         3045.8        4.867e+6 
         3046.1        4.937e+6 
         3046.4        4.971e+6 
         3046.7        4.961e+6 
           3047        4.915e+6 
         3047.3        4.844e+6 
         3047.6        4.768e+6 
         3047.9        4.702e+6 
         3048.2        4.663e+6 
         3048.5        4.661e+6 
         3048.8        4.698e+6 
         3049.1        4.773e+6 
         3049.4        4.877e+6 
         3049.7          5.0e+6 
           3050        5.134e+6 
         3050.3        5.275e+6 
         3050.6        5.421e+6 
         3050.9        5.567e+6 
         3051.2        5.703e+6 
         3051.5        5.818e+6 
         3051.8         5.89e+6 
         3052.1         5.91e+6 
         3052.4         5.87e+6 
         3052.7        5.778e+6 
           3053        5.651e+6 
         3053.3        5.511e+6 
         3053.6        5.382e+6 
         3053.9        5.279e+6 
         3054.2         5.21e+6 
         3054.5        5.175e+6 
         3054.8        5.164e+6 
         3055.1        5.162e+6 
         3055.4        5.147e+6 
         3055.7          5.1e+6 
           3056        5.012e+6 
         3056.3        4.882e+6 
         3056.6        4.729e+6 
         3056.9         4.58e+6 
         3057.2        4.461e+6 
         3057.5         4.39e+6 
         3057.8         4.37e+6 
         3058.1        4.389e+6 
         3058.4        4.425e+6 
         3058.7        4.464e+6 
           3059        4.504e+6 
         3059.3        4.554e+6 
         3059.6        4.627e+6 
         3059.9        4.732e+6 
         3060.2        4.861e+6 
         3060.5        4.995e+6 
         3060.8        5.108e+6 
         3061.1        5.178e+6 
         3061.4        5.194e+6 
         3061.7        5.156e+6 
           3062        5.077e+6 
         3062.3        4.975e+6 
         3062.6        4.868e+6 
         3062.9        4.773e+6 
         3063.2        4.705e+6 
         3063.5        4.668e+6 
         3063.8        4.657e+6 
         3064.1        4.657e+6 
         3064.4         4.65e+6 
         3064.7        4.616e+6 
           3065        4.549e+6 
         3065.3        4.454e+6 
         3065.6        4.352e+6 
         3065.9        4.272e+6 
         3066.2        4.244e+6 
         3066.5        4.289e+6 
         3066.8        4.416e+6 
         3067.1        4.614e+6 
         3067.4        4.863e+6 
         3067.7        5.134e+6 
           3068          5.4e+6 
         3068.3        5.636e+6 
         3068.6        5.822e+6 
         3068.9        5.944e+6 
         3069.2        5.993e+6 
         3069.5        5.961e+6 
         3069.8        5.854e+6 
         3070.1        5.685e+6 
         3070.4        5.475e+6 
         3070.7        5.252e+6 
           3071         5.04e+6 
         3071.3        4.856e+6 
         3071.6        4.716e+6 
         3071.9        4.627e+6 
         3072.2        4.595e+6 
         3072.5         4.62e+6 
         3072.8        4.697e+6 
         3073.1        4.806e+6 
         3073.4         4.92e+6 
         3073.7        5.002e+6 
           3074        5.029e+6 
         3074.3        4.993e+6 
         3074.6         4.91e+6 
         3074.9        4.814e+6 
         3075.2        4.745e+6 
         3075.5        4.734e+6 
         3075.8        4.787e+6 
         3076.1        4.888e+6 
         3076.4        5.003e+6 
         3076.7        5.094e+6 
           3077        5.133e+6 
         3077.3        5.111e+6 
         3077.6        5.039e+6 
         3077.9        4.946e+6 
         3078.2         4.87e+6 
         3078.5        4.841e+6 
         3078.8        4.877e+6 
         3079.1        4.974e+6 
         3079.4         5.11e+6 
         3079.7         5.25e+6 
           3080        5.361e+6 
         3080.3        5.418e+6 
         3080.6        5.415e+6 
         3080.9        5.358e+6 
         3081.2        5.263e+6 
         3081.5        5.153e+6 
         3081.8        5.049e+6 
         3082.1        4.974e+6 
         3082.4        4.945e+6 
         3082.7        4.971e+6 
           3083        5.057e+6 
         3083.3        5.198e+6 
         3083.6        5.382e+6 
         3083.9        5.589e+6 
         3084.2        5.794e+6 
         3084.5        5.971e+6 
         3084.8        6.097e+6 
         3085.1        6.156e+6 
         3085.4        6.141e+6 
         3085.7        6.054e+6 
           3086        5.903e+6 
         3086.3        5.704e+6 
         3086.6        5.475e+6 
         3086.9        5.238e+6 
         3087.2        5.016e+6 
         3087.5        4.832e+6 
         3087.8        4.705e+6 
         3088.1        4.644e+6 
         3088.4        4.648e+6 
         3088.7        4.709e+6 
           3089        4.811e+6 
         3089.3        4.938e+6 
         3089.6         5.08e+6 
         3089.9        5.226e+6 
         3090.2        5.365e+6 
         3090.5        5.483e+6 
         3090.8        5.566e+6 
         3091.1          5.6e+6 
         3091.4        5.575e+6 
         3091.7        5.489e+6 
           3092        5.348e+6 
         3092.3        5.177e+6 
         3092.6        5.008e+6 
         3092.9        4.877e+6 
         3093.2        4.812e+6 
         3093.5         4.82e+6 
         3093.8         4.89e+6 
         3094.1        4.993e+6 
         3094.4        5.095e+6 
         3094.7        5.164e+6 
           3095        5.181e+6 
         3095.3        5.139e+6 
         3095.6        5.045e+6 
         3095.9        4.921e+6 
         3096.2        4.794e+6 
         3096.5        4.695e+6 
         3096.8        4.648e+6 
         3097.1        4.666e+6 
         3097.4        4.743e+6 
         3097.7        4.861e+6 
           3098        4.985e+6 
         3098.3        5.083e+6 
         3098.6        5.129e+6 
         3098.9        5.111e+6 
         3099.2        5.033e+6 
         3099.5        4.911e+6 
         3099.8        4.771e+6 
         3100.1        4.638e+6 
         3100.4        4.534e+6 
         3100.7        4.479e+6 
           3101        4.477e+6 
         3101.3        4.525e+6 
         3101.6        4.614e+6 
         3101.9         4.73e+6 
         3102.2        4.854e+6 
         3102.5        4.966e+6 
         3102.8        5.046e+6 
         3103.1        5.077e+6 
         3103.4        5.053e+6 
         3103.7        4.977e+6 
           3104         4.86e+6 
         3104.3        4.729e+6 
         3104.6        4.611e+6 
         3104.9        4.532e+6 
         3105.2         4.51e+6 
         3105.5        4.551e+6 
         3105.8        4.649e+6 
         3106.1        4.791e+6 
         3106.4        4.955e+6 
         3106.7        5.123e+6 
           3107        5.276e+6 
         3107.3        5.399e+6 
         3107.6        5.485e+6 
         3107.9        5.528e+6 
         3108.2         5.53e+6 
         3108.5        5.495e+6 
         3108.8        5.431e+6 
         3109.1         5.35e+6 
         3109.4        5.266e+6 
         3109.7        5.194e+6 
           3110         5.15e+6 
         3110.3        5.143e+6 
         3110.6        5.178e+6 
         3110.9        5.252e+6 
         3111.2        5.353e+6 
         3111.5        5.468e+6 
         3111.8         5.58e+6 
         3112.1        5.678e+6 
         3112.4        5.753e+6 
         3112.7        5.794e+6 
           3113        5.799e+6 
         3113.3        5.768e+6 
         3113.6         5.71e+6 
         3113.9        5.637e+6 
         3114.2        5.564e+6 
         3114.5        5.508e+6 
         3114.8        5.476e+6 
         3115.1        5.469e+6 
         3115.4        5.482e+6 
         3115.7          5.5e+6 
           3116        5.507e+6 
         3116.3        5.488e+6 
         3116.6         5.43e+6 
         3116.9         5.33e+6 
         3117.2        5.189e+6 
         3117.5         5.02e+6 
         3117.8         4.84e+6 
         3118.1        4.668e+6 
         3118.4        4.521e+6 
         3118.7        4.408e+6 
           3119        4.332e+6 
         3119.3        4.285e+6 
         3119.6        4.262e+6 
         3119.9        4.261e+6 
         3120.2        4.281e+6 
         3120.5        4.327e+6 
         3120.8          4.4e+6 
         3121.1        4.498e+6 
         3121.4         4.62e+6 
         3121.7         4.76e+6 
           3122        4.916e+6 
         3122.3         5.08e+6 
         3122.6        5.241e+6 
         3122.9        5.382e+6 
         3123.2         5.48e+6 
         3123.5        5.512e+6 
         3123.8        5.464e+6 
         3124.1        5.336e+6 
         3124.4        5.152e+6 
         3124.7        4.957e+6 
           3125        4.803e+6 
         3125.3        4.737e+6 
         3125.6        4.786e+6 
         3125.9        4.945e+6 
         3126.2        5.182e+6 
         3126.5        5.444e+6 
         3126.8        5.674e+6 
         3127.1        5.827e+6 
         3127.4        5.878e+6 
         3127.7        5.828e+6 
           3128        5.697e+6 
         3128.3        5.519e+6 
         3128.6        5.326e+6 
         3128.9        5.142e+6 
         3129.2        4.976e+6 
         3129.5        4.826e+6 
         3129.8        4.685e+6 
         3130.1        4.551e+6 
         3130.4        4.426e+6 
         3130.7        4.318e+6 
           3131        4.235e+6 
         3131.3        4.184e+6 
         3131.6        4.167e+6 
         3131.9         4.18e+6 
         3132.2         4.22e+6 
         3132.5         4.28e+6 
         3132.8        4.354e+6 
         3133.1        4.434e+6 
         3133.4        4.518e+6 
         3133.7        4.606e+6 
           3134        4.699e+6 
         3134.3        4.797e+6 
         3134.6        4.901e+6 
         3134.9        5.011e+6 
         3135.2        5.122e+6 
         3135.5        5.232e+6 
         3135.8        5.342e+6 
         3136.1         5.45e+6 
         3136.4        5.561e+6 
         3136.7        5.678e+6 
           3137        5.798e+6 
         3137.3        5.912e+6 
         3137.6        6.007e+6 
         3137.9        6.071e+6 
         3138.2        6.091e+6 
         3138.5        6.066e+6 
         3138.8        6.003e+6 
         3139.1        5.917e+6 
         3139.4        5.827e+6 
         3139.7        5.754e+6 
           3140         5.71e+6 
         3140.3        5.696e+6 
         3140.6        5.703e+6 
         3140.9        5.711e+6 
         3141.2          5.7e+6 
         3141.5        5.657e+6 
         3141.8        5.578e+6 
         3142.1         5.47e+6 
         3142.4        5.343e+6 
         3142.7        5.207e+6 
           3143        5.068e+6 
         3143.3        4.928e+6 
         3143.6        4.787e+6 
         3143.9        4.649e+6 
         3144.2        4.522e+6 
         3144.5        4.421e+6 
         3144.8        4.364e+6 
         3145.1        4.365e+6 
         3145.4         4.43e+6 
         3145.7        4.554e+6 
           3146        4.719e+6 
         3146.3        4.902e+6 
         3146.6        5.081e+6 
         3146.9        5.239e+6 
         3147.2        5.373e+6 
         3147.5        5.483e+6 
         3147.8        5.574e+6 
         3148.1        5.652e+6 
         3148.4         5.72e+6 
         3148.7        5.776e+6 
           3149        5.824e+6 
         3149.3        5.869e+6 
         3149.6        5.916e+6 
         3149.9        5.966e+6 
         3150.2        6.015e+6 
         3150.5        6.055e+6 
         3150.8        6.076e+6 
         3151.1        6.073e+6 
         3151.4        6.048e+6 
         3151.7         6.01e+6 
           3152        5.966e+6 
         3152.3        5.922e+6 
         3152.6        5.879e+6 
         3152.9        5.833e+6 
         3153.2        5.778e+6 
         3153.5         5.71e+6 
         3153.8        5.631e+6 
         3154.1        5.546e+6 
         3154.4         5.46e+6 
         3154.7        5.383e+6 
           3155        5.321e+6 
         3155.3         5.28e+6 
         3155.6        5.265e+6 
         3155.9        5.274e+6 
         3156.2        5.292e+6 
         3156.5        5.302e+6 
         3156.8         5.28e+6 
         3157.1        5.213e+6 
         3157.4        5.094e+6 
         3157.7        4.938e+6 
           3158        4.769e+6 
         3158.3        4.615e+6 
         3158.6        4.506e+6 
         3158.9        4.458e+6 
         3159.2         4.47e+6 
         3159.5         4.52e+6 
         3159.8        4.573e+6 
         3160.1        4.598e+6 
         3160.4        4.571e+6 
         3160.7        4.491e+6 
           3161        4.374e+6 
         3161.3         4.25e+6 
         3161.6        4.156e+6 
         3161.9        4.121e+6 
         3162.2        4.165e+6 
         3162.5         4.29e+6 
         3162.8        4.478e+6 
         3163.1        4.697e+6 
         3163.4        4.911e+6 
         3163.7        5.085e+6 
           3164        5.202e+6 
         3164.3        5.261e+6 
         3164.6        5.277e+6 
         3164.9         5.27e+6 
         3165.2         5.26e+6 
         3165.5        5.259e+6 
         3165.8        5.266e+6 
         3166.1        5.276e+6 
         3166.4        5.278e+6 
         3166.7        5.259e+6 
           3167        5.214e+6 
         3167.3        5.145e+6 
         3167.6        5.069e+6 
         3167.9        5.009e+6 
         3168.2        4.987e+6 
         3168.5         5.02e+6 
         3168.8        5.109e+6 
         3169.1        5.241e+6 
         3169.4        5.397e+6 
         3169.7         5.56e+6 
           3170        5.714e+6 
         3170.3        5.854e+6 
         3170.6        5.978e+6 
         3170.9        6.086e+6 
         3171.2        6.177e+6 
         3171.5        6.251e+6 
         3171.8        6.308e+6 
         3172.1        6.344e+6 
         3172.4        6.361e+6 
         3172.7        6.355e+6 
           3173        6.331e+6 
         3173.3        6.292e+6 
         3173.6        6.246e+6 
         3173.9        6.204e+6 
         3174.2        6.174e+6 
         3174.5         6.16e+6 
         3174.8        6.167e+6 
         3175.1        6.193e+6 
         3175.4        6.229e+6 
         3175.7        6.258e+6 
           3176        6.261e+6 
         3176.3        6.218e+6 
         3176.6        6.114e+6 
         3176.9        5.947e+6 
         3177.2        5.724e+6 
         3177.5         5.46e+6 
         3177.8        5.175e+6 
         3178.1        4.889e+6 
