# Granada HRES Library
# atmosphere = Spectrum  (atmosphere model used)
# feh = -5  (value for [Fe/H] for the model.)
# logg = 0 log(cm/s2) (value for Log(G) for the model.)
# teff = 4750 K (value for the effective temperature for the model. Temperatures are given in K)
#
# column 1: WAVELENGTH (ANGSTROM), Wavelength in Angstrom
# column 2: FLUX (ERG/CM2/S/A), Flux in erg/cm2/s/A
         3000.2           10050 
         3000.5           10520 
         3000.8           11170 
         3001.1           12050 
         3001.4           13160 
         3001.7           14560 
           3002           16340 
         3002.3           18650 
         3002.6           21660 
         3002.9           25530 
         3003.2           30370 
         3003.5           36120 
         3003.8           42570 
         3004.1           49310 
         3004.4           55780 
         3004.7           61350 
           3005           65410 
         3005.3           67480 
         3005.6           67260 
         3005.9           64740 
         3006.2           60160 
         3006.5           54060 
         3006.8           47140 
         3007.1           40240 
         3007.4           34120 
         3007.7           29440 
           3008           26630 
         3008.3           25910 
         3008.6           27270 
         3008.9           30520 
         3009.2           35310 
         3009.5           41130 
         3009.8           47360 
         3010.1           53340 
         3010.4           58440 
         3010.7           62240 
           3011           64540 
         3011.3           65490 
         3011.6           65440 
         3011.9           64880 
         3012.2           64200 
         3012.5           63640 
         3012.8           63280 
         3013.1           63040 
         3013.4           62760 
         3013.7           62300 
           3014           61540 
         3014.3           60410 
         3014.6           58860 
         3014.9           56880 
         3015.2           54480 
         3015.5           51720 
         3015.8           48630 
         3016.1           45290 
         3016.4           41720 
         3016.7           38010 
           3017           34230 
         3017.3           30480 
         3017.6           26850 
         3017.9           23400 
         3018.2           20180 
         3018.5           17200 
         3018.8           14480 
         3019.1           12000 
         3019.4            9819 
         3019.7            8005 
           3020            6649 
         3020.3            5843 
         3020.6            5679 
         3020.9            6233 
         3021.2            7500 
         3021.5            9419 
         3021.8           11860 
         3022.1           14630 
         3022.4           17480 
         3022.7           20190 
           3023           22540 
         3023.3           24380 
         3023.6           25620 
         3023.9           26260 
         3024.2           26370 
         3024.5           26150 
         3024.8           25870 
         3025.1           25940 
         3025.4           26800 
         3025.7           28910 
           3026           32580 
         3026.3           37860 
         3026.6           44540 
         3026.9           52080 
         3027.2           59810 
         3027.5           66970 
         3027.8           72890 
         3028.1           77110 
         3028.4           79420 
         3028.7           79880 
           3029           78790 
         3029.3           76600 
         3029.6           73830 
         3029.9           70940 
         3030.2           68370 
         3030.5           66450 
         3030.8           65470 
         3031.1           65660 
         3031.4           67150 
         3031.7           69860 
           3032           73520 
         3032.3           77690 
         3032.6           81870 
         3032.9           85620 
         3033.2           88690 
         3033.5           90930 
         3033.8           92360 
         3034.1           92970 
         3034.4           92660 
         3034.7           91210 
           3035           88310 
         3035.3           83690 
         3035.6           77310 
         3035.9           69400 
         3036.2           60590 
         3036.5           51720 
         3036.8           43830 
         3037.1           37810 
         3037.4           34310 
         3037.7           33580 
           3038           35480 
         3038.3           39480 
         3038.6           44810 
         3038.9           50580 
         3039.2           55970 
         3039.5           60330 
         3039.8           63220 
         3040.1           64490 
         3040.4           64230 
         3040.7           62750 
           3041           60550 
         3041.3           58170 
         3041.6           56270 
         3041.9           55350 
         3042.2           55730 
         3042.5           57450 
         3042.8           60190 
         3043.1           63430 
         3043.4           66560 
         3043.7           69040 
           3044           70550 
         3044.3           70960 
         3044.6           70280 
         3044.9           68570 
         3045.2           65880 
         3045.5           62250 
         3045.8           57720 
         3046.1           52430 
         3046.4           46730 
         3046.7           41200 
           3047           36490 
         3047.3           33310 
         3047.6           32200 
         3047.9           33350 
         3048.2           36570 
         3048.5           41320 
         3048.8           46880 
         3049.1           52470 
         3049.4           57510 
         3049.7           61830 
           3050           65620 
         3050.3           69370 
         3050.6           73610 
         3050.9           78620 
         3051.2           84250 
         3051.5           89850 
         3051.8           94520 
         3052.1           97300 
         3052.4           97530 
         3052.7           95120 
           3053           90550 
         3053.3           84760 
         3053.6           78910 
         3053.9           74050 
         3054.2           70830 
         3054.5           69390 
         3054.8           69310 
         3055.1           69780 
         3055.4           69860 
         3055.7           68710 
           3056           65800 
         3056.3           61040 
         3056.6           54760 
         3056.9           47630 
         3057.2           40410 
         3057.5           33840 
         3057.8           28500 
         3058.1           24770 
         3058.4           22880 
         3058.7           23010 
           3059           25180 
         3059.3           29430 
         3059.6           35560 
         3059.9           43260 
         3060.2           51980 
         3060.5           61000 
         3060.8           69550 
         3061.1           76930 
         3061.4           82540 
         3061.7           86090 
           3062           87490 
         3062.3           86910 
         3062.6           84740 
         3062.9           81520 
         3063.2           77850 
         3063.5           74250 
         3063.8           71120 
         3064.1           68620 
         3064.4           66640 
         3064.7           64890 
           3065           62950 
         3065.3           60510 
         3065.6           57460 
         3065.9           53980 
         3066.2           50550 
         3066.5           47860 
         3066.8           46630 
         3067.1           47500 
         3067.4           50740 
         3067.7           56340 
           3068           63850 
         3068.3           72540 
         3068.6           81530 
         3068.9           89880 
         3069.2           96800 
         3069.5          101800 
         3069.8          104600 
         3070.1          105400 
         3070.4          104400 
         3070.7          101900 
           3071           98230 
         3071.3           93920 
         3071.6           89390 
         3071.9           85220 
         3072.2           81980 
         3072.5           80070 
         3072.8           79630 
         3073.1           80290 
         3073.4           81460 
         3073.7           82400 
           3074           82470 
         3074.3           81470 
         3074.6           79700 
         3074.9           77880 
         3075.2           76970 
         3075.5           77630 
         3075.8           80130 
         3076.1           84040 
         3076.4           88480 
         3076.7           92330 
           3077           94690 
         3077.3           95120 
         3077.6           93780 
         3077.9           91370 
         3078.2           88890 
         3078.5           87250 
         3078.8           87020 
         3079.1           88280 
         3079.4           90570 
         3079.7           93150 
           3080           95210 
         3080.3           96160 
         3080.6           95750 
         3080.9           94060 
         3081.2           91460 
         3081.5           88420 
         3081.8           85570 
         3082.1           83380 
         3082.4           82260 
         3082.7           82540 
           3083           84470 
         3083.3           88220 
         3083.6           93760 
         3083.9          100800 
         3084.2          108900 
         3084.5          117000 
         3084.8          124300 
         3085.1          129600 
         3085.4          132200 
         3085.7          131600 
           3086          127700 
         3086.3          121000 
         3086.6          112400 
         3086.9          102900 
         3087.2           93770 
         3087.5           86100 
         3087.8           80530 
         3088.1           77250 
         3088.4           76010 
         3088.7           76190 
           3089           77090 
         3089.3           78100 
         3089.6           78830 
         3089.9           79160 
         3090.2           79150 
         3090.5           78900 
         3090.8           78480 
         3091.1           77870 
         3091.4           76950 
         3091.7           75610 
           3092           73860 
         3092.3           71860 
         3092.6           70030 
         3092.9           68980 
         3093.2           69210 
         3093.5           70990 
         3093.8           74180 
         3094.1           78270 
         3094.4           82490 
         3094.7           86020 
           3095           88260 
         3095.3           88930 
         3095.6           88190 
         3095.9           86500 
         3096.2           84520 
         3096.5           82880 
         3096.8           81920 
         3097.1           81550 
         3097.4           81360 
         3097.7           80610 
           3098           78570 
         3098.3           74720 
         3098.6           68970 
         3098.9           61700 
         3099.2           53640 
         3099.5           45670 
         3099.8           38670 
         3100.1           33310 
         3100.4           30080 
         3100.7           29190 
           3101           30760 
         3101.3           34770 
         3101.6           41060 
         3101.9           49290 
         3102.2           58960 
         3102.5           69280 
         3102.8           79380 
         3103.1           88340 
         3103.4           95420 
         3103.7          100100 
           3104          102300 
         3104.3          102400 
         3104.6          101000 
         3104.9           99010 
         3105.2           97380 
         3105.5           96990 
         3105.8           98390 
         3106.1          101700 
         3106.4          106700 
         3106.7          112700 
           3107          118900 
         3107.3          124700 
         3107.6          129400 
         3107.9          132400 
         3108.2          133500 
         3108.5          132600 
         3108.8          130000 
         3109.1          126100 
         3109.4          121600 
         3109.7          117400 
           3110          114400 
         3110.3          113200 
         3110.6          114300 
         3110.9          117500 
         3111.2          122000 
         3111.5          127000 
         3111.8          131500 
         3112.1          134400 
         3112.4          135400 
         3112.7          134300 
           3113          131500 
         3113.3          127500 
         3113.6          123400 
         3113.9          119900 
         3114.2          117600 
         3114.5          116700 
         3114.8          116800 
         3115.1          117500 
         3115.4          117900 
         3115.7          117500 
           3116          115700 
         3116.3          112500 
         3116.6          107900 
         3116.9          102500 
         3117.2           96770 
         3117.5           91170 
         3117.8           86220 
         3118.1           82270 
         3118.4           79490 
         3118.7           77920 
           3119           77500 
         3119.3           78070 
         3119.6           79480 
         3119.9           81550 
         3120.2           84010 
         3120.5           86570 
         3120.8           88900 
         3121.1           90730 
         3121.4           92030 
         3121.7           92970 
           3122           93860 
         3122.3           95110 
         3122.6           96960 
         3122.9           99360 
         3123.2          102000 
         3123.5          104400 
         3123.8          105800 
         3124.1          105800 
         3124.4          104400 
         3124.7          102100 
           3125           99680 
         3125.3           98270 
         3125.6           98710 
         3125.9          101400 
         3126.2          106100 
         3126.5          111900 
         3126.8          117700 
         3127.1          122400 
         3127.4          125100 
         3127.7          125500 
           3128          123700 
         3128.3          120400 
         3128.6          116200 
         3128.9          111900 
         3129.2          108000 
         3129.5          104600 
         3129.8          102000 
         3130.1          100000 
         3130.4           98860 
         3130.7           98290 
           3131           98160 
         3131.3           98140 
         3131.6           97880 
         3131.9           97040 
         3132.2           95430 
         3132.5           93120 
         3132.8           90410 
         3133.1           87820 
         3133.4           86030 
         3133.7           85630 
           3134           87050 
         3134.3           90330 
         3134.6           95040 
         3134.9          100500 
         3135.2          105800 
         3135.5          110300 
         3135.8          113600 
         3136.1          115900 
         3136.4          117400 
         3136.7          118600 
           3137          119800 
         3137.3          121100 
         3137.6          122400 
         3137.9          123400 
         3138.2          123900 
         3138.5          124100 
         3138.8          124200 
         3139.1          124500 
         3139.4          125400 
         3139.7          127200 
           3140          129700 
         3140.3          132600 
         3140.6          135400 
         3140.9          137100 
         3141.2          137100 
         3141.5          134600 
         3141.8          129600 
         3142.1          122300 
         3142.4          113100 
         3142.7          102800 
           3143           92130 
         3143.3           82020 
         3143.6           73160 
         3143.9           66240 
         3144.2           61610 
         3144.5           59470 
         3144.8           59720 
         3145.1           61990 
         3145.4           65670 
         3145.7           70080 
           3146           74610 
         3146.3           78920 
         3146.6           82940 
         3146.9           86980 
         3147.2           91410 
         3147.5           96600 
         3147.8          102800 
         3148.1          109700 
         3148.4          116900 
         3148.7          124000 
           3149          130400 
         3149.3          135700 
         3149.6          139800 
         3149.9          142700 
         3150.2          144300 
         3150.5          144800 
         3150.8          144200 
         3151.1          142800 
         3151.4          140900 
         3151.7          138900 
           3152          137400 
         3152.3          136400 
         3152.6          136000 
         3152.9          135800 
         3153.2          135300 
         3153.5          134100 
         3153.8          131900 
         3154.1          129000 
         3154.4          125600 
         3154.7          122300 
           3155          119300 
         3155.3          116800 
         3155.6          114500 
         3155.9          112300 
         3156.2          109700 
         3156.5          106400 
         3156.8          102600 
         3157.1           98280 
         3157.4           93960 
         3157.7           90020 
           3158           86860 
         3158.3           84700 
         3158.6           83470 
         3158.9           82850 
         3159.2           82430 
         3159.5           81670 
         3159.8           80150 
         3160.1           77630 
         3160.4           74330 
         3160.7           70760 
           3161           67720 
         3161.3           66000 
         3161.6           66320 
         3161.9           69080 
         3162.2           74140 
         3162.5           81020 
         3162.8           88820 
         3163.1           96440 
         3163.4          102800 
         3163.7          107100 
           3164          109200 
         3164.3          109200 
         3164.6          108000 
         3164.9          106400 
         3165.2          105400 
         3165.5          105600 
         3165.8          107000 
         3166.1          109500 
         3166.4          112200 
         3166.7          114300 
           3167          115200 
         3167.3          114500 
         3167.6          112200 
         3167.9          109100 
         3168.2          106200 
         3168.5          104700 
         3168.8          105300 
         3169.1          108400 
         3169.4          113700 
         3169.7          120600 
           3170          128200 
         3170.3          135700 
         3170.6          142600 
         3170.9          148500 
         3171.2          153600 
         3171.5          157800 
         3171.8          161200 
         3172.1          163700 
         3172.4          165000 
         3172.7          164800 
           3173          163100 
         3173.3          160300 
         3173.6          156700 
         3173.9          153200 
         3174.2          150400 
         3174.5          148900 
         3174.8          149200 
         3175.1          151200 
         3175.4          154500 
         3175.7          158500 
           3176          162100 
         3176.3          164600 
         3176.6          165200 
         3176.9          163500 
         3177.2          160000 
         3177.5          154800 
         3177.8          148600 
         3178.1          141900 
