# Granada HRES Library
# atmosphere = Phoenix  (atmosphere model used)
# feh = -10  (value for [Fe/H] for the model.)
# logg = 3 log(cm/s2) (value for Log(G) for the model.)
# teff = 4500 K (value for the effective temperature for the model. Temperatures are given in K)
#
# column 1: WAVELENGTH (ANGSTROM), Wavelength in Angstrom
# column 2: FLUX (ERG/CM2/S/A), Flux in erg/cm2/s/A
         3000.2           20960 
         3000.5           19650 
         3000.8           18620 
         3001.1           17940 
         3001.4           17500 
         3001.7           17140 
           3002           16860 
         3002.3           17040 
         3002.6           18450 
         3002.9           21980 
         3003.2           28360 
         3003.5           37790 
         3003.8           49800 
         3004.1           63320 
         3004.4           77020 
         3004.7           89540 
           3005           99630 
         3005.3          106300 
         3005.6          108300 
         3005.9          105100 
         3006.2           96490 
         3006.5           83660 
         3006.8           68680 
         3007.1           54050 
         3007.4           41860 
         3007.7           33410 
           3008           28990 
         3008.3           28310 
         3008.6           30840 
         3008.9           36080 
         3009.2           43690 
         3009.5           53050 
         3009.8           63060 
         3010.1           72030 
         3010.4           78250 
         3010.7           80750 
           3011           80010 
         3011.3           77960 
         3011.6           77190 
         3011.9           79700 
         3012.2           85770 
         3012.5           93810 
         3012.8          101100 
         3013.1          105300 
         3013.4          105200 
         3013.7          101500 
           3014           95640 
         3014.3           89310 
         3014.6           83470 
         3014.9           78480 
         3015.2           74250 
         3015.5           70560 
         3015.8           67230 
         3016.1           64060 
         3016.4           60790 
         3016.7           57070 
           3017           52720 
         3017.3           47890 
         3017.6           42990 
         3017.9           38390 
         3018.2           34270 
         3018.5           30530 
         3018.8           26960 
         3019.1           23450 
         3019.4           19960 
         3019.7           16650 
           3020           13750 
         3020.3           11640 
         3020.6           10670 
         3020.9           11170 
         3021.2           13240 
         3021.5           16730 
         3021.8           21180 
         3022.1           25930 
         3022.4           30180 
         3022.7           33250 
           3023           34720 
         3023.3           34640 
         3023.6           33510 
         3023.9           32050 
         3024.2           30790 
         3024.5           29890 
         3024.8           29240 
         3025.1           28780 
         3025.4           28910 
         3025.7           30530 
           3026           34790 
         3026.3           42470 
         3026.6           53760 
         3026.9           68310 
         3027.2           85360 
         3027.5          103900 
         3027.8          122800 
         3028.1          139700 
         3028.4          152200 
         3028.7          157400 
           3029          154000 
         3029.3          142400 
         3029.6          124900 
         3029.9          105300 
         3030.2           87080 
         3030.5           74160 
         3030.8           69460 
         3031.1           74990 
         3031.4           91140 
         3031.7          115900 
           3032          144800 
         3032.3          171600 
         3032.6          190300 
         3032.9          197100 
         3033.2          192300 
         3033.5          179400 
         3033.8          163600 
         3034.1          149700 
         3034.4          140200 
         3034.7          134300 
           3035          129300 
         3035.3          122000 
         3035.6          110700 
         3035.9           95600 
         3036.2           78590 
         3036.5           61990 
         3036.8           47850 
         3037.1           37520 
         3037.4           31600 
         3037.7           30030 
           3038           32340 
         3038.3           37840 
         3038.6           45740 
         3038.9           54990 
         3039.2           64200 
         3039.5           71710 
         3039.8           76020 
         3040.1           76370 
         3040.4           73000 
         3040.7           67000 
           3041           59860 
         3041.3           53080 
         3041.6           48110 
         3041.9           46190 
         3042.2           48200 
         3042.5           54440 
         3042.8           64590 
         3043.1           77800 
         3043.4           92770 
         3043.7          107700 
           3044          120400 
         3044.3          128600 
         3044.6          130900 
         3044.9          127400 
         3045.2          119200 
         3045.5          108100 
         3045.8           95460 
         3046.1           82220 
         3046.4           68850 
         3046.7           56080 
           3047           45050 
         3047.3           37090 
         3047.6           33200 
         3047.9           33840 
         3048.2           38680 
         3048.5           46620 
         3048.8           55870 
         3049.1           64160 
         3049.4           69530 
         3049.7           71070 
           3050           69590 
         3050.3           67500 
         3050.6           67870 
         3050.9           73170 
         3051.2           84090 
         3051.5           99100 
         3051.8          114800 
         3052.1          126700 
         3052.4          131400 
         3052.7          127000 
           3053          114600 
         3053.3           97620 
         3053.6           80500 
         3053.9           67180 
         3054.2           60260 
         3054.5           60530 
         3054.8           67040 
         3055.1           77300 
         3055.4           87790 
         3055.7           94830 
           3056           95790 
         3056.3           90020 
         3056.6           78960 
         3056.9           65350 
         3057.2           52060 
         3057.5           41100 
         3057.8           33220 
         3058.1           28240 
         3058.4           25720 
         3058.7           25500 
           3059           27970 
         3059.3           33810 
         3059.6           43610 
         3059.9           57380 
         3060.2           74410 
         3060.5           93400 
         3060.8          112800 
         3061.1          131500 
         3061.4          148700 
         3061.7          163600 
           3062          174800 
         3062.3          179900 
         3062.6          176200 
         3062.9          162700 
         3063.2          140700 
         3063.5          114700 
         3063.8           90380 
         3064.1           72610 
         3064.4           63740 
         3064.7           63010 
           3065           67150 
         3065.3           71900 
         3065.6           73600 
         3065.9           70570 
         3066.2           63490 
         3066.5           54810 
         3066.8           47430 
         3067.1           43740 
         3067.4           45100 
         3067.7           51780 
           3068           63050 
         3068.3           77170 
         3068.6           91580 
         3068.9          103500 
         3069.2          111100 
         3069.5          114600 
         3069.8          116500 
         3070.1          120900 
         3070.4          130900 
         3070.7          146700 
           3071          165400 
         3071.3          181800 
         3071.6          191500 
         3071.9          193300 
         3072.2          189000 
         3072.5          182000 
         3072.8          175000 
         3073.1          169300 
         3073.4          164600 
         3073.7          160200 
           3074          155400 
         3074.3          149900 
         3074.6          144500 
         3074.9          140800 
         3075.2          141800 
         3075.5          150400 
         3075.8          167700 
         3076.1          190800 
         3076.4          213800 
         3076.7          229700 
           3077          233700 
         3077.3          225400 
         3077.6          208700 
         3077.9          189900 
         3078.2          175400 
         3078.5          168500 
         3078.8          169100 
         3079.1          173400 
         3079.4          176100 
         3079.7          172900 
           3080          161700 
         3080.3          143300 
         3080.6          120800 
         3080.9           98560 
         3081.2           80540 
         3081.5           69450 
         3081.8           66040 
         3082.1           69180 
         3082.4           76640 
         3082.7           86300 
           3083           97150 
         3083.3          109600 
         3083.6          124400 
         3083.9          141600 
         3084.2          159800 
         3084.5          176600 
         3084.8          189900 
         3085.1          198300 
         3085.4          201000 
         3085.7          196900 
           3086          186000 
         3086.3          169900 
         3086.6          152600 
         3086.9          138500 
         3087.2          131300 
         3087.5          131800 
         3087.8          138200 
         3088.1          146200 
         3088.4          151000 
         3088.7          148800 
           3089          138900 
         3089.3          123200 
         3089.6          105600 
         3089.9           89690 
         3090.2           77080 
         3090.5           67380 
         3090.8           59210 
         3091.1           51520 
         3091.4           44070 
         3091.7           37410 
           3092           32440 
         3092.3           30080 
         3092.6           30990 
         3092.9           35340 
         3093.2           42610 
         3093.5           51590 
         3093.8           60710 
         3094.1           68420 
         3094.4           73510 
         3094.7           75310 
           3095           73740 
         3095.3           69360 
         3095.6           63410 
         3095.9           57640 
         3096.2           54060 
         3096.5           54330 
         3096.8           59050 
         3097.1           67200 
         3097.4           76230 
         3097.7           82790 
           3098           84180 
         3098.3           79490 
         3098.6           69830 
         3098.9           57710 
         3099.2           45880 
         3099.5           36370 
         3099.8           30080 
         3100.1           26910 
         3100.4           26130 
         3100.7           27010 
           3101           29210 
         3101.3           39720 
         3101.6           50170 
         3101.9           64980 
         3102.2           83790 
         3102.5          105400 
         3102.8          128000 
         3103.1          150400 
         3103.4          171000 
         3103.7          187500 
           3104          197400 
         3104.3          197600 
         3104.6          187200 
         3104.9          168800 
         3105.2          147700 
         3105.5          130600 
         3105.8          121900 
         3106.1          122800 
         3106.4          130800 
         3106.7          141500 
           3107          150700 
         3107.3          155700 
         3107.6          155700 
         3107.9          151100 
         3108.2          144100 
         3108.5          137400 
         3108.8          134700 
         3109.1          139700 
         3109.4          154400 
         3109.7          179000 
           3110          210800 
         3110.3          245700 
         3110.6          279100 
         3110.9          306800 
         3111.2          326000 
         3111.5          335100 
         3111.8          333700 
         3112.1          322000 
         3112.4          301900 
         3112.7          276800 
           3113          253200 
         3113.3          238700 
         3113.6          240600 
         3113.9          262700 
         3114.2          302900 
         3114.5          352700 
         3114.8          398900 
         3115.1          427900 
         3115.4          429700 
         3115.7          401900 
           3116          350500 
         3116.3          287000 
         3116.6          224900 
         3116.9          174800 
         3117.2          142100 
         3117.5          126000 
         3117.8          122000 
         3118.1          123900 
         3118.4          127100 
         3118.7          129200 
           3119          130700 
         3119.3          134000 
         3119.6          141400 
         3119.9          153300 
         3120.2          166600 
         3120.5          176100 
         3120.8          176500 
         3121.1          165400 
         3121.4          144800 
         3121.7          120700 
           3122          100100 
         3122.3           88800 
         3122.6           89910 
         3122.9          103200 
         3123.2          125500 
         3123.5          150700 
         3123.8          172000 
         3124.1          184300 
         3124.4          186200 
         3124.7          180500 
           3125          173400 
         3125.3          171600 
         3125.6          179000 
         3125.9          196400 
         3126.2          219500 
         3126.5          240700 
         3126.8          251100 
         3127.1          244800 
         3127.4          222300 
         3127.7          190500 
           3128          159300 
         3128.3          137400 
         3128.6          129000 
         3128.9          132100 
         3129.2          141300 
         3129.5          150400 
         3129.8          154900 
         3130.1          153500 
         3130.4          147000 
         3130.7          137700 
           3131          127600 
         3131.3          117900 
         3131.6          109100 
         3131.9          100800 
         3132.2           92870 
         3132.5           85000 
         3132.8           77940 
         3133.1           73510 
         3133.4           74460 
         3133.7           83560 
           3134          101900 
         3134.3          127700 
         3134.6          155300 
         3134.9          177900 
         3135.2          189700 
         3135.5          189700 
         3135.8          181600 
         3136.1          171700 
         3136.4          166600 
         3136.7          169900 
           3137          181500 
         3137.3          198500 
         3137.6          217200 
         3137.9          233700 
         3138.2          245500 
         3138.5          252000 
         3138.8          253200 
         3139.1          249800 
         3139.4          243000 
         3139.7          234500 
           3140          226100 
         3140.3          219700 
         3140.6          216000 
         3140.9          214000 
         3141.2          212400 
         3141.5          210600 
         3141.8          208500 
         3142.1          205200 
         3142.4          198700 
         3142.7          186400 
           3143          166800 
         3143.3          142000 
         3143.6          116600 
         3143.9           96740 
         3144.2           87210 
         3144.5           90670 
         3144.8          106700 
         3145.1          131700 
         3145.4          158700 
         3145.7          179700 
           3146          188000 
         3146.3          182000 
         3146.6          166000 
         3146.9          148700 
         3147.2          139100 
         3147.5          144500 
         3147.8          167000 
         3148.1          203800 
         3148.4          247600 
         3148.7          288300 
           3149          316900 
         3149.3          328800 
         3149.6          324500 
         3149.9          308800 
         3150.2          287700 
         3150.5          266100 
         3150.8          246800 
         3151.1          230500 
         3151.4          217500 
         3151.7          208500 
           3152          204100 
         3152.3          204300 
         3152.6          207900 
         3152.9          211800 
         3153.2          213000 
         3153.5          209900 
         3153.8          204700 
         3154.1          201000 
         3154.4          202300 
         3154.7          208200 
           3155          214200 
         3155.3          214400 
         3155.6          204800 
         3155.9          185100 
         3156.2          159300 
         3156.5          133100 
         3156.8          111600 
         3157.1           97600 
         3157.4           91690 
         3157.7           92720 
           3158           98680 
         3158.3          107200 
         3158.6          116100 
         3158.9          123400 
         3159.2          127700 
         3159.5          128300 
         3159.8          125800 
         3160.1          121500 
         3160.4          117400 
         3160.7          115700 
           3161          118500 
         3161.3          127900 
         3161.6          144900 
         3161.9          168600 
         3162.2          195700 
         3162.5          220300 
         3162.8          235800 
         3163.1          237500 
         3163.4          224700 
         3163.7          201900 
           3164          176000 
         3164.3          155000 
         3164.6          143300 
         3164.9          143000 
         3165.2          153800 
         3165.5          175000 
         3165.8          206000 
         3166.1          245000 
         3166.4          287800 
         3166.7          327200 
           3167          354300 
         3167.3          362400 
         3167.6          349500 
         3167.9          320300 
         3168.2          284200 
         3168.5          252200 
         3168.8          233200 
         3169.1          231300 
         3169.4          245100 
         3169.7          271600 
           3170          306900 
         3170.3          348800 
         3170.6          395600 
         3170.9          444600 
         3171.2          491100 
         3171.5          527800 
         3171.8          546700 
         3172.1          543200 
         3172.4          518500 
         3172.7          481200 
           3173          444600 
         3173.3          421500 
         3173.6          417900 
         3173.9          431900 
         3174.2          456400 
         3174.5          483500 
         3174.8          508500 
         3175.1          529900 
         3175.4          546700 
         3175.7          556100 
           3176          553900 
         3176.3          536200 
         3176.6          502600 
         3176.9          458300 
         3177.2          412600 
         3177.5          375300 
         3177.8          352100 
         3178.1          341800 
