# Granada HRES Library
# atmosphere = Spectrum  (atmosphere model used)
# feh = 0  (value for [Fe/H] for the model.)
# logg = 4.5 log(cm/s2) (value for Log(G) for the model.)
# teff = 5000 K (value for the effective temperature for the model. Temperatures are given in K)
#
# column 1: WAVELENGTH (ANGSTROM), Wavelength in Angstrom
# column 2: FLUX (ERG/CM2/S/A), Flux in erg/cm2/s/A
         3000.2           67670 
         3000.5           69380 
         3000.8           71970 
         3001.1           75330 
         3001.4           79510 
         3001.7           84510 
           3002           90960 
         3002.3           99850 
         3002.6          112700 
         3002.9          131300 
         3003.2          157200 
         3003.5          190900 
         3003.8          231700 
         3004.1          277100 
         3004.4          322900 
         3004.7          364200 
           3005          395600 
         3005.3          412800 
         3005.6          412800 
         3005.9          395400 
         3006.2          362800 
         3006.5          319500 
         3006.8          271600 
         3007.1          225300 
         3007.4          186100 
         3007.7          157500 
           3008          141600 
         3008.3          139000 
         3008.6          149700 
         3008.9          173000 
         3009.2          207500 
         3009.5          250000 
         3009.8          295800 
         3010.1          338500 
         3010.4          371900 
         3010.7          391500 
           3011          397000 
         3011.3          391600 
         3011.6          381500 
         3011.9          373000 
         3012.2          370000 
         3012.5          373000 
         3012.8          379000 
         3013.1          383900 
         3013.4          383900 
         3013.7          376900 
           3014          363300 
         3014.3          344900 
         3014.6          324600 
         3014.9          304800 
         3015.2          286700 
         3015.5          270500 
         3015.8          255400 
         3016.1          240400 
         3016.4          224400 
         3016.7          206900 
           3017          188200 
         3017.3          169100 
         3017.6          150400 
         3017.9          133000 
         3018.2          117200 
         3018.5          103000 
         3018.8           90300 
         3019.1           78820 
         3019.4           68560 
         3019.7           59810 
           3020           53030 
         3020.3           48890 
         3020.6           48160 
         3020.9           51450 
         3021.2           58950 
         3021.5           70280 
         3021.8           84470 
         3022.1          100100 
         3022.4          115600 
         3022.7          129300 
           3023          140000 
         3023.3          147000 
         3023.6          150400 
         3023.9          150600 
         3024.2          148200 
         3024.5          144500 
         3024.8          141200 
         3025.1          141200 
         3025.4          147700 
         3025.7          164100 
           3026          193800 
         3026.3          238100 
         3026.6          295700 
         3026.9          363200 
         3027.2          434800 
         3027.5          503200 
         3027.8          560600 
         3028.1          600100 
         3028.4          617100 
         3028.7          610300 
           3029          582400 
         3029.3          539300 
         3029.6          488900 
         3029.9          439800 
         3030.2          399500 
         3030.5          374000 
         3030.8          367500 
         3031.1          383200 
         3031.4          421600 
         3031.7          480200 
           3032          552800 
         3032.3          630700 
         3032.6          704300 
         3032.9          765600 
         3033.2          809900 
         3033.5          836800 
         3033.8          848800 
         3034.1          848900 
         3034.4          838900 
         3034.7          818100 
           3035          783700 
         3035.3          732700 
         3035.6          664100 
         3035.9          580600 
         3036.2          489000 
         3036.5          398600 
         3036.8          319400 
         3037.1          258900 
         3037.4          222000 
         3037.7          210100 
           3038          220100 
         3038.3          246400 
         3038.6          281600 
         3038.9          317900 
         3039.2          348400 
         3039.5          368200 
         3039.8          375600 
         3040.1          370800 
         3040.4          356800 
         3040.7          337400 
           3041          317100 
         3041.3          300500 
         3041.6          291900 
         3041.9          295200 
         3042.2          312500 
         3042.5          343800 
         3042.8          386100 
         3043.1          433900 
         3043.4          480400 
         3043.7          519300 
           3044          545700 
         3044.3          557100 
         3044.6          553100 
         3044.9          534800 
         3045.2          504300 
         3045.5          464000 
         3045.8          416300 
         3046.1          364500 
         3046.4          312600 
         3046.7          265100 
           3047          227200 
         3047.3          203400 
         3047.6          196400 
         3047.9          207000 
         3048.2          232400 
         3048.5          267700 
         3048.8          305800 
         3049.1          339800 
         3049.4          365700 
         3049.7          383200 
           3050          397100 
         3050.3          415700 
         3050.6          447600 
         3050.9          497700 
         3051.2          564600 
         3051.5          639200 
         3051.8          706900 
         3052.1          752500 
         3052.4          764400 
         3052.7          738800 
           3053          681300 
         3053.3          604600 
         3053.6          524800 
         3053.9          456000 
         3054.2          407300 
         3054.5          381000 
         3054.8          372900 
         3055.1          375200 
         3055.4          378500 
         3055.7          374800 
           3056          359500 
         3056.3          331700 
         3056.6          294200 
         3056.9          252000 
         3057.2          210700 
         3057.5          175100 
         3057.8          148600 
         3058.1          132800 
         3058.4          128300 
         3058.7          135800 
           3059          156500 
         3059.3          191000 
         3059.6          240000 
         3059.9          302900 
         3060.2          377300 
         3060.5          458700 
         3060.8          541300 
         3061.1          617900 
         3061.4          681400 
         3061.7          725000 
           3062          743800 
         3062.3          735100 
         3062.6          699500 
         3062.9          642400 
         3063.2          572900 
         3063.5          502500 
         3063.8          442300 
         3064.1          400200 
         3064.4          378200 
         3064.7          372300 
           3065          374200 
         3065.3          374000 
         3065.6          364400 
         3065.9          342800 
         3066.2          312000 
         3066.5          279700 
         3066.8          255400 
         3067.1          247800 
         3067.4          263200 
         3067.7          303200 
           3068          366800 
         3068.3          448100 
         3068.6          538500 
         3068.9          629400 
         3069.2          713300 
         3069.5          785100 
         3069.8          843700 
         3070.1          890100 
         3070.4          925300 
         3070.7          949700 
           3071          961500 
         3071.3          958900 
         3071.6          941600 
         3071.9          912400 
         3072.2          877100 
         3072.5          842000 
         3072.8          811200 
         3073.1          785400 
         3073.4          761700 
         3073.7          735200 
           3074          702800 
         3074.3          664200 
         3074.6          622900 
         3074.9          586600 
         3075.2          563900 
         3075.5          563000 
         3075.8          587000 
         3076.1          632400 
         3076.4          689800 
         3076.7          746900 
           3077          791300 
         3077.3          815500 
         3077.6          819200 
         3077.9          807100 
         3078.2          787500 
         3078.5          768300 
         3078.8          753600 
         3079.1          742700 
         3079.4          731300 
         3079.7          713300 
           3080          684100 
         3080.3          641900 
         3080.6          588700 
         3080.9          529500 
         3081.2          470500 
         3081.5          418500 
         3081.8          378700 
         3082.1          355000 
         3082.4          349000 
         3082.7          360700 
           3083          390800 
         3083.3          440300 
         3083.6          510300 
         3083.9          600600 
         3084.2          708400 
         3084.5          827000 
         3084.8          944800 
         3085.1        1.048e+6 
         3085.4        1.121e+6 
         3085.7        1.153e+6 
           3086        1.138e+6 
         3086.3        1.081e+6 
         3086.6          992800 
         3086.9          891300 
         3087.2          794600 
         3087.5          716100 
         3087.8          662300 
         3088.1          630700 
         3088.4          613000 
         3088.7          597500 
           3089          574500 
         3089.3          538500 
         3089.6          490600 
         3089.9          435600 
         3090.2          379600 
         3090.5          328200 
         3090.8          284500 
         3091.1          249600 
         3091.4          223100 
         3091.7          204000 
           3092          191800 
         3092.3          186600 
         3092.6          189500 
         3092.9          201700 
         3093.2          223400 
         3093.5          253500 
         3093.8          288900 
         3094.1          325200 
         3094.4          357400 
         3094.7          380900 
           3095          392700 
         3095.3          391800 
         3095.6          380100 
         3095.9          361500 
         3096.2          341700 
         3096.5          325800 
         3096.8          317200 
         3097.1          316400 
         3097.4          320300 
         3097.7          323700 
           3098          320900 
         3098.3          308300 
         3098.6          285000 
         3098.9          253300 
         3099.2          217800 
         3099.5          183400 
         3099.8          154300 
         3100.1          134300 
         3100.4          125000 
         3100.7          128700 
           3101          147100 
         3101.3          182000 
         3101.6          234800 
         3101.9          305000 
         3102.2          389700 
         3102.5          483000 
         3102.8          576800 
         3103.1          662200 
         3103.4          731500 
         3103.7          779300 
           3104          802700 
         3104.3          803100 
         3104.6          785800 
         3104.9          759100 
         3105.2          733200 
         3105.5          718600 
         3105.8          722600 
         3106.1          748200 
         3106.4          793400 
         3106.7          852200 
           3107          917800 
         3107.3          982700 
         3107.6        1.042e+6 
         3107.9         1.09e+6 
         3108.2        1.123e+6 
         3108.5         1.14e+6 
         3108.8        1.139e+6 
         3109.1        1.123e+6 
         3109.4          1.1e+6 
         3109.7        1.079e+6 
           3110         1.07e+6 
         3110.3         1.08e+6 
         3110.6        1.111e+6 
         3110.9        1.159e+6 
         3111.2        1.211e+6 
         3111.5        1.255e+6 
         3111.8        1.279e+6 
         3112.1        1.273e+6 
         3112.4        1.237e+6 
         3112.7        1.173e+6 
           3113        1.094e+6 
         3113.3        1.015e+6 
         3113.6          949900 
         3113.9          913700 
         3114.2          911400 
         3114.5          940400 
         3114.8          988800 
         3115.1         1.04e+6 
         3115.4        1.075e+6 
         3115.7        1.082e+6 
           3116        1.055e+6 
         3116.3          997900 
         3116.6          922600 
         3116.9          842100 
         3117.2          768600 
         3117.5          709800 
         3117.8          668700 
         3118.1          643900 
         3118.4          631600 
         3118.7          628100 
           3119          631100 
         3119.3          641100 
         3119.6          659300 
         3119.9          685700 
         3120.2          717300 
         3120.5          746400 
         3120.8          764100 
         3121.1          762100 
         3121.4          737900 
         3121.7          696400 
           3122          648400 
         3122.3          607100 
         3122.6          583700 
         3122.9          583900 
         3123.2          606500 
         3123.5          644000 
         3123.8          684500 
         3124.1          716300 
         3124.4          731200 
         3124.7          727600 
           3125          712000 
         3125.3          694100 
         3125.6          684800 
         3125.9          690800 
         3126.2          713200 
         3126.5          745800 
         3126.8          779100 
         3127.1          803500 
         3127.4          812300 
         3127.7          805300 
           3128          786700 
         3128.3          765400 
         3128.6          749200 
         3128.9          742800 
         3129.2          746200 
         3129.5          756000 
         3129.8          766900 
         3130.1          775300 
         3130.4          779200 
         3130.7          778000 
           3131          771200 
         3131.3          758000 
         3131.6          737600 
         3131.9          709400 
         3132.2          674400 
         3132.5          635700 
         3132.8          597400 
         3133.1          565500 
         3133.4          546500 
         3133.7          548300 
           3134          575600 
         3134.3          628200 
         3134.6          700300 
         3134.9          780300 
         3135.2          855000 
         3135.5          913000 
         3135.8          949500 
         3136.1          966200 
         3136.4          968600 
         3136.7          963100 
           3137          952500 
         3137.3          937400 
         3137.6          917500 
         3137.9          893700 
         3138.2          870000 
         3138.5          851200 
         3138.8          842500 
         3139.1          846700 
         3139.4          864300 
         3139.7          894100 
           3140          932900 
         3140.3          975900 
         3140.6        1.016e+6 
         3140.9        1.045e+6 
         3141.2        1.054e+6 
         3141.5        1.038e+6 
         3141.8          993600 
         3142.1          923200 
         3142.4          832600 
         3142.7          729900 
           3143          625100 
         3143.3          527500 
         3143.6          445800 
         3143.9          385800 
         3144.2          352000 
         3144.5          344600 
         3144.8          360900 
         3145.1          396400 
         3145.4          443100 
         3145.7          492200 
           3146          536300 
         3146.3          571200 
         3146.6          598200 
         3146.9          623400 
         3147.2          655100 
         3147.5          700200 
         3147.8          761300 
         3148.1          835200 
         3148.4          912000 
         3148.7          980500 
           3149        1.032e+6 
         3149.3        1.063e+6 
         3149.6        1.076e+6 
         3149.9        1.078e+6 
         3150.2        1.075e+6 
         3150.5        1.069e+6 
         3150.8        1.059e+6 
         3151.1        1.042e+6 
         3151.4        1.018e+6 
         3151.7          988500 
           3152          961600 
         3152.3          943600 
         3152.6          940000 
         3152.9          950000 
         3153.2          968800 
         3153.5          988100 
         3153.8        1.001e+6 
         3154.1        1.002e+6 
         3154.4          993400 
         3154.7          975400 
           3155          949300 
         3155.3          914000 
         3155.6          868200 
         3155.9          809800 
         3156.2          740100 
         3156.5          662900 
         3156.8          584800 
         3157.1          513100 
         3157.4          453400 
         3157.7          409800 
           3158          382600 
         3158.3          369800 
         3158.6          367600 
         3158.9          371800 
         3159.2          377700 
         3159.5          382100 
         3159.8          381800 
         3160.1          378100 
         3160.4          372800 
         3160.7          370800 
           3161          377000 
         3161.3          396100 
         3161.6          430500 
         3161.9          479700 
         3162.2          539900 
         3162.5          604000 
         3162.8          663000 
         3163.1          708400 
         3163.4          734500 
         3163.7          739200 
           3164          726500 
         3164.3          703900 
         3164.6          680700 
         3164.9          665500 
         3165.2          663400 
         3165.5          676400 
         3165.8          702500 
         3166.1          737100 
         3166.4          773300 
         3166.7          803500 
           3167          820600 
         3167.3          819600 
         3167.6          800700 
         3167.9          768300 
         3168.2          732800 
         3168.5          706500 
         3168.8          700600 
         3169.1          721700 
         3169.4          769000 
         3169.7          835000 
           3170          907600 
         3170.3          975300 
         3170.6        1.031e+6 
         3170.9        1.073e+6 
         3171.2        1.105e+6 
         3171.5        1.132e+6 
         3171.8        1.158e+6 
         3172.1         1.18e+6 
         3172.4        1.194e+6 
         3172.7        1.194e+6 
           3173        1.177e+6 
         3173.3        1.145e+6 
         3173.6        1.102e+6 
         3173.9        1.058e+6 
         3174.2        1.021e+6 
         3174.5        1.002e+6 
         3174.8        1.008e+6 
         3175.1        1.045e+6 
         3175.4        1.109e+6 
         3175.7         1.19e+6 
           3176         1.27e+6 
         3176.3        1.327e+6 
         3176.6        1.343e+6 
         3176.9         1.31e+6 
         3177.2        1.231e+6 
         3177.5        1.119e+6 
         3177.8          991900 
         3178.1          866500 
