# Granada HRES Library
# atmosphere = Phoenix  (atmosphere model used)
# feh = -5  (value for [Fe/H] for the model.)
# logg = 1 log(cm/s2) (value for Log(G) for the model.)
# teff = 4000 K (value for the effective temperature for the model. Temperatures are given in K)
#
# column 1: WAVELENGTH (ANGSTROM), Wavelength in Angstrom
# column 2: FLUX (ERG/CM2/S/A), Flux in erg/cm2/s/A
         3000.2           423.4 
         3000.5           371.7 
         3000.8           338.8 
         3001.1           322.4 
         3001.4             316 
         3001.7             312 
           3002           306.9 
         3002.3           304.3 
         3002.6           314.5 
         3002.9           350.6 
         3003.2             424 
         3003.5           538.3 
         3003.8           689.3 
         3004.1           863.7 
         3004.4            1043 
         3004.7            1208 
           3005            1341 
         3005.3            1426 
         3005.6            1452 
         3005.9            1416 
         3006.2            1321 
         3006.5            1182 
         3006.8            1023 
         3007.1           868.5 
         3007.4           743.5 
         3007.7           665.9 
           3008           644.6 
         3008.3           679.7 
         3008.6           764.9 
         3008.9           891.7 
         3009.2            1050 
         3009.5            1225 
         3009.8            1394 
         3010.1            1524 
         3010.4            1586 
         3010.7            1569 
           3011            1490 
         3011.3            1391 
         3011.6            1317 
         3011.9            1298 
         3012.2            1336 
         3012.5            1403 
         3012.8            1461 
         3013.1            1481 
         3013.4            1454 
         3013.7            1392 
           3014            1319 
         3014.3            1259 
         3014.6            1229 
         3014.9            1232 
         3015.2            1258 
         3015.5            1292 
         3015.8            1320 
         3016.1            1331 
         3016.4            1319 
         3016.7            1279 
           3017            1213 
         3017.3            1126 
         3017.6            1029 
         3017.9           932.1 
         3018.2           838.5 
         3018.5           746.3 
         3018.8             652 
         3019.1           555.1 
         3019.4           459.1 
         3019.7           370.3 
           3020           295.9 
         3020.3           243.3 
         3020.6           219.6 
         3020.9           229.4 
         3021.2           274.4 
         3021.5           350.6 
         3021.8           448.8 
         3022.1           554.9 
         3022.4           652.1 
         3022.7           723.9 
           3023           759.1 
         3023.3           755.4 
         3023.6           720.9 
         3023.9             671 
         3024.2           621.1 
         3024.5           580.3 
         3024.8           550.1 
         3025.1           528.5 
         3025.4           516.9 
         3025.7           521.5 
           3026             550 
         3026.3           604.8 
         3026.6           680.6 
         3026.9           765.6 
         3027.2           849.7 
         3027.5           930.2 
         3027.8            1015 
         3028.1            1116 
         3028.4            1241 
         3028.7            1388 
           3029            1536 
         3029.3            1653 
         3029.6            1710 
         3029.9            1696 
         3030.2            1628 
         3030.5            1552 
         3030.8            1526 
         3031.1            1601 
         3031.4            1795 
         3031.7            2075 
           3032            2366 
         3032.3            2575 
         3032.6            2633 
         3032.9            2525 
         3033.2            2291 
         3033.5            2004 
         3033.8            1741 
         3034.1            1555 
         3034.4            1464 
         3034.7            1446 
           3035            1461 
         3035.3            1463 
         3035.6            1417 
         3035.9            1315 
         3036.2            1167 
         3036.5           999.8 
         3036.8           846.3 
         3037.1           733.8 
         3037.4           681.2 
         3037.7           693.3 
           3038           761.4 
         3038.3           868.2 
         3038.6             996 
         3038.9            1132 
         3039.2            1267 
         3039.5            1393 
         3039.8            1499 
         3040.1            1572 
         3040.4            1602 
         3040.7            1589 
           3041            1542 
         3041.3            1483 
         3041.6            1443 
         3041.9            1447 
         3042.2            1504 
         3042.5            1602 
         3042.8            1715 
         3043.1            1816 
         3043.4            1891 
         3043.7            1944 
           3044            1984 
         3044.3            2019 
         3044.6            2050 
         3044.9            2069 
         3045.2            2062 
         3045.5            2013 
         3045.8            1906 
         3046.1            1735 
         3046.4            1510 
         3046.7            1258 
           3047            1016 
         3047.3           822.6 
         3047.6           707.2 
         3047.9           682.9 
         3048.2           747.3 
         3048.5           883.3 
         3048.8            1060 
         3049.1            1236 
         3049.4            1369 
         3049.7            1429 
           3050            1411 
         3050.3            1339 
         3050.6            1254 
         3050.9            1197 
         3051.2            1192 
         3051.5            1237 
         3051.8            1313 
         3052.1            1388 
         3052.4            1430 
         3052.7            1419 
           3053            1354 
         3053.3            1252 
         3053.6            1143 
         3053.9            1054 
         3054.2           999.9 
         3054.5           982.7 
         3054.8           990.7 
         3055.1            1007 
         3055.4            1015 
         3055.7            1004 
           3056           970.9 
         3056.3           920.8 
         3056.6           863.7 
         3056.9           809.7 
         3057.2           765.3 
         3057.5             731 
         3057.8             702 
         3058.1           673.3 
         3058.4           645.6 
         3058.7           630.6 
           3059           648.9 
         3059.3           723.3 
         3059.6           867.9 
         3059.9            1082 
         3060.2            1347 
         3060.5            1631 
         3060.8            1903 
         3061.1            2133 
         3061.4            2304 
         3061.7            2402 
           3062            2414 
         3062.3            2326 
         3062.6            2135 
         3062.9            1863 
         3063.2            1559 
         3063.5            1284 
         3063.8            1085 
         3064.1           981.5 
         3064.4           958.3 
         3064.7           979.5 
           3065            1007 
         3065.3            1019 
         3065.6            1014 
         3065.9            1007 
         3066.2            1018 
         3066.5            1063 
         3066.8            1152 
         3067.1            1298 
         3067.4            1516 
         3067.7            1824 
           3068            2218 
         3068.3            2655 
         3068.6            3052 
         3068.9            3304 
         3069.2            3338 
         3069.5            3147 
         3069.8            2804 
         3070.1            2430 
         3070.4            2141 
         3070.7            2006 
           3071            2039 
         3071.3            2203 
         3071.6            2442 
         3071.9            2697 
         3072.2            2918 
         3072.5            3071 
         3072.8            3140 
         3073.1            3130 
         3073.4            3063 
         3073.7            2972 
           3074            2880 
         3074.3            2803 
         3074.6            2761 
         3074.9            2789 
         3075.2            2941 
         3075.5            3258 
         3075.8            3730 
         3076.1            4265 
         3076.4            4717 
         3076.7            4942 
           3077            4874 
         3077.3            4544 
         3077.6            4066 
         3077.9            3572 
         3078.2            3163 
         3078.5            2880 
         3078.8            2709 
         3079.1            2603 
         3079.4            2509 
         3079.7            2385 
           3080            2213 
         3080.3            1999 
         3080.6            1767 
         3080.9            1559 
         3081.2            1414 
         3081.5            1364 
         3081.8            1413 
         3082.1            1538 
         3082.4            1689 
         3082.7            1813 
           3083            1881 
         3083.3            1901 
         3083.6            1916 
         3083.9            1978 
         3084.2            2123 
         3084.5            2350 
         3084.8            2627 
         3085.1            2900 
         3085.4            3120 
         3085.7            3261 
           3086            3339 
         3086.3            3407 
         3086.6            3528 
         3086.9            3748 
         3087.2            4077 
         3087.5            4481 
         3087.8            4886 
         3088.1            5185 
         3088.4            5269 
         3088.7            5075 
           3089            4626 
         3089.3            4035 
         3089.6            3452 
         3089.9            2985 
         3090.2            2657 
         3090.5            2416 
         3090.8            2186 
         3091.1            1922 
         3091.4            1631 
         3091.7            1353 
           3092            1139 
         3092.3            1026 
         3092.6            1027 
         3092.9            1132 
         3093.2            1305 
         3093.5            1500 
         3093.8            1670 
         3094.1            1782 
         3094.4            1831 
         3094.7            1828 
           3095            1793 
         3095.3            1750 
         3095.6            1723 
         3095.9            1751 
         3096.2            1890 
         3096.5            2198 
         3096.8            2705 
         3097.1            3369 
         3097.4            4062 
         3097.7            4598 
           3098            4802 
         3098.3            4594 
         3098.6            4024 
         3098.9            3249 
         3099.2            2460 
         3099.5            1806 
         3099.8            1357 
         3100.1            1107 
         3100.4            1004 
         3100.7           994.9 
           3101            1054 
         3101.3            1472 
         3101.6            1936 
         3101.9            2602 
         3102.2            3420 
         3102.5            4278 
         3102.8            5045 
         3103.1            5631 
         3103.4            6017 
         3103.7            6236 
           3104            6310 
         3104.3            6211 
         3104.6            5879 
         3104.9            5284 
         3105.2            4482 
         3105.5            3601 
         3105.8            2803 
         3106.1            2208 
         3106.4            1872 
         3106.7            1791 
           3107            1925 
         3107.3            2218 
         3107.6            2608 
         3107.9            3025 
         3108.2            3397 
         3108.5            3655 
         3108.8            3768 
         3109.1            3762 
         3109.4            3734 
         3109.7            3826 
           3110            4157 
         3110.3            4759 
         3110.6            5531 
         3110.9            6263 
         3111.2            6710 
         3111.5            6709 
         3111.8            6246 
         3112.1            5455 
         3112.4            4560 
         3112.7            3781 
           3113            3279 
         3113.3            3136 
         3113.6            3368 
         3113.9            3940 
         3114.2            4773 
         3114.5            5758 
         3114.8            6751 
         3115.1            7579 
         3115.4            8067 
         3115.7            8076 
           3116            7570 
         3116.3            6652 
         3116.6            5543 
         3116.9            4504 
         3117.2            3733 
         3117.5            3312 
         3117.8            3202 
         3118.1            3285 
         3118.4            3430 
         3118.7            3542 
           3119            3591 
         3119.3            3603 
         3119.6            3632 
         3119.9            3718 
         3120.2            3847 
         3120.5            3948 
         3120.8            3936 
         3121.1            3777 
         3121.4            3527 
         3121.7            3327 
           3122            3347 
         3122.3            3709 
         3122.6            4424 
         3122.9            5367 
         3123.2            6324 
         3123.5            7064 
         3123.8            7441 
         3124.1            7453 
         3124.4            7225 
         3124.7            6933 
           3125            6704 
         3125.3            6568 
         3125.6            6473 
         3125.9            6354 
         3126.2            6183 
         3126.5            5965 
         3126.8            5708 
         3127.1            5400 
         3127.4            5021 
         3127.7            4570 
           3128            4079 
         3128.3            3609 
         3128.6            3222 
         3128.9            2958 
         3129.2            2817 
         3129.5            2768 
         3129.8            2776 
         3130.1            2832 
         3130.4            2955 
         3130.7            3177 
           3131            3493 
         3131.3            3843 
         3131.6            4117 
         3131.9            4212 
         3132.2            4081 
         3132.5            3767 
         3132.8            3383 
         3133.1            3082 
         3133.4            3009 
         3133.7            3257 
           3134            3825 
         3134.3            4586 
         3134.6            5320 
         3134.9            5783 
         3135.2            5827 
         3135.5            5478 
         3135.8            4914 
         3136.1            4382 
         3136.4            4093 
         3136.7            4171 
           3137            4632 
         3137.3            5416 
         3137.6            6396 
         3137.9            7411 
         3138.2            8296 
         3138.5            8911 
         3138.8            9188 
         3139.1            9142 
         3139.4            8886 
         3139.7            8591 
           3140            8416 
         3140.3            8428 
         3140.6            8572 
         3140.9            8732 
         3141.2            8817 
         3141.5            8813 
         3141.8            8751 
         3142.1            8619 
         3142.4            8337 
         3142.7            7816 
           3143            7049 
         3143.3            6146 
         3143.6            5273 
         3143.9            4564 
         3144.2            4064 
         3144.5            3749 
         3144.8            3577 
         3145.1            3515 
         3145.4            3544 
         3145.7            3647 
           3146            3805 
         3146.3            4014 
         3146.6            4284 
         3146.9            4649 
         3147.2            5174 
         3147.5            5956 
         3147.8            7095 
         3148.1            8629 
         3148.4           10460 
         3148.7           12370 
           3149           14040 
         3149.3           15260 
         3149.6           15920 
         3149.9           15990 
         3150.2           15480 
         3150.5           14410 
         3150.8           12890 
         3151.1           11060 
         3151.4            9142 
         3151.7            7356 
           3152            5847 
         3152.3            4678 
         3152.6            3845 
         3152.9            3308 
         3153.2            3031 
         3153.5            2998 
         3153.8            3203 
         3154.1            3623 
         3154.4            4182 
         3154.7            4744 
           3155            5158 
         3155.3            5327 
         3155.6            5250 
         3155.9            5013 
         3156.2            4731 
         3156.5            4501 
         3156.8            4375 
         3157.1            4365 
         3157.4            4465 
         3157.7            4663 
           3158            4954 
         3158.3            5326 
         3158.6            5747 
         3158.9            6132 
         3159.2            6360 
         3159.5            6329 
         3159.8            6002 
         3160.1            5462 
         3160.4            4876 
         3160.7            4432 
           3161            4284 
         3161.3            4539 
         3161.6            5254 
         3161.9            6430 
         3162.2            7970 
         3162.5            9638 
         3162.8           11080 
         3163.1           11940 
         3163.4           12040 
         3163.7           11410 
           3164           10330 
         3164.3            9101 
         3164.6            7975 
         3164.9            7096 
         3165.2            6538 
         3165.5            6354 
         3165.8            6591 
         3166.1            7272 
         3166.4            8364 
         3166.7            9728 
           3167           11130 
         3167.3           12250 
         3167.6           12830 
         3167.9           12750 
         3168.2           12110 
         3168.5           11230 
         3168.8           10450 
         3169.1           10000 
         3169.4            9984 
         3169.7           10320 
           3170           10900 
         3170.3           11630 
         3170.6           12510 
         3170.9           13570 
         3171.2           14840 
         3171.5           16230 
         3171.8           17490 
         3172.1           18310 
         3172.4           18510 
         3172.7           18250 
           3173           18000 
         3173.3           18310 
         3173.6           19440 
         3173.9           21250 
         3174.2           23360 
         3174.5           25430 
         3174.8           27320 
         3175.1           29060 
         3175.4           30600 
         3175.7           31660 
           3176           31810 
         3176.3           30750 
         3176.6           28540 
         3176.9           25590 
         3177.2           22570 
         3177.5           20090 
         3177.8           18420 
         3178.1           17440 
