# Granada HRES Library
# atmosphere = Spectrum  (atmosphere model used)
# feh = -10  (value for [Fe/H] for the model.)
# logg = 2 log(cm/s2) (value for Log(G) for the model.)
# teff = 5500 K (value for the effective temperature for the model. Temperatures are given in K)
#
# column 1: WAVELENGTH (ANGSTROM), Wavelength in Angstrom
# column 2: FLUX (ERG/CM2/S/A), Flux in erg/cm2/s/A
         3000.2        1.572e+6 
         3000.5        1.575e+6 
         3000.8        1.577e+6 
         3001.1        1.578e+6 
         3001.4        1.576e+6 
         3001.7        1.571e+6 
           3002        1.567e+6 
         3002.3        1.569e+6 
         3002.6        1.584e+6 
         3002.9        1.619e+6 
         3003.2        1.676e+6 
         3003.5        1.756e+6 
         3003.8        1.852e+6 
         3004.1        1.958e+6 
         3004.4        2.062e+6 
         3004.7        2.156e+6 
           3005        2.232e+6 
         3005.3        2.282e+6 
         3005.6        2.304e+6 
         3005.9        2.297e+6 
         3006.2        2.264e+6 
         3006.5        2.209e+6 
         3006.8        2.142e+6 
         3007.1        2.071e+6 
         3007.4        2.005e+6 
         3007.7        1.955e+6 
           3008        1.926e+6 
         3008.3        1.925e+6 
         3008.6        1.953e+6 
         3008.9        2.009e+6 
         3009.2        2.087e+6 
         3009.5        2.178e+6 
         3009.8         2.27e+6 
         3010.1        2.352e+6 
         3010.4        2.412e+6 
         3010.7        2.446e+6 
           3011        2.453e+6 
         3011.3        2.439e+6 
         3011.6        2.409e+6 
         3011.9        2.371e+6 
         3012.2        2.332e+6 
         3012.5        2.293e+6 
         3012.8        2.258e+6 
         3013.1        2.225e+6 
         3013.4        2.195e+6 
         3013.7        2.168e+6 
           3014        2.143e+6 
         3014.3        2.122e+6 
         3014.6        2.103e+6 
         3014.9        2.088e+6 
         3015.2        2.077e+6 
         3015.5        2.072e+6 
         3015.8        2.073e+6 
         3016.1        2.078e+6 
         3016.4        2.085e+6 
         3016.7         2.09e+6 
           3017        2.089e+6 
         3017.3        2.078e+6 
         3017.6        2.053e+6 
         3017.9        2.011e+6 
         3018.2        1.951e+6 
         3018.5        1.872e+6 
         3018.8        1.775e+6 
         3019.1        1.663e+6 
         3019.4        1.545e+6 
         3019.7         1.43e+6 
           3020        1.334e+6 
         3020.3        1.273e+6 
         3020.6        1.261e+6 
         3020.9        1.307e+6 
         3021.2        1.412e+6 
         3021.5        1.564e+6 
         3021.8        1.745e+6 
         3022.1         1.93e+6 
         3022.4        2.096e+6 
         3022.7        2.226e+6 
           3023        2.309e+6 
         3023.3        2.343e+6 
         3023.6        2.333e+6 
         3023.9        2.288e+6 
         3024.2        2.218e+6 
         3024.5        2.133e+6 
         3024.8        2.046e+6 
         3025.1        1.968e+6 
         3025.4        1.911e+6 
         3025.7        1.887e+6 
           3026        1.901e+6 
         3026.3        1.955e+6 
         3026.6         2.04e+6 
         3026.9        2.145e+6 
         3027.2        2.253e+6 
         3027.5        2.349e+6 
         3027.8        2.422e+6 
         3028.1        2.464e+6 
         3028.4        2.473e+6 
         3028.7        2.452e+6 
           3029        2.408e+6 
         3029.3        2.349e+6 
         3029.6        2.285e+6 
         3029.9        2.223e+6 
         3030.2         2.17e+6 
         3030.5        2.131e+6 
         3030.8        2.108e+6 
         3031.1        2.102e+6 
         3031.4        2.112e+6 
         3031.7        2.135e+6 
           3032        2.165e+6 
         3032.3        2.198e+6 
         3032.6        2.228e+6 
         3032.9        2.253e+6 
         3033.2        2.275e+6 
         3033.5        2.296e+6 
         3033.8        2.319e+6 
         3034.1        2.347e+6 
         3034.4        2.378e+6 
         3034.7        2.404e+6 
           3035        2.419e+6 
         3035.3        2.411e+6 
         3035.6        2.374e+6 
         3035.9        2.305e+6 
         3036.2        2.207e+6 
         3036.5        2.092e+6 
         3036.8        1.975e+6 
         3037.1        1.874e+6 
         3037.4        1.803e+6 
         3037.7        1.772e+6 
           3038        1.785e+6 
         3038.3        1.835e+6 
         3038.6        1.912e+6 
         3038.9          2.0e+6 
         3039.2        2.086e+6 
         3039.5        2.154e+6 
         3039.8        2.197e+6 
         3040.1        2.209e+6 
         3040.4        2.193e+6 
         3040.7        2.155e+6 
           3041        2.105e+6 
         3041.3        2.054e+6 
         3041.6        2.013e+6 
         3041.9         1.99e+6 
         3042.2        1.988e+6 
         3042.5        2.006e+6 
         3042.8        2.038e+6 
         3043.1        2.075e+6 
         3043.4        2.112e+6 
         3043.7        2.142e+6 
           3044        2.165e+6 
         3044.3        2.182e+6 
         3044.6        2.196e+6 
         3044.9        2.207e+6 
         3045.2        2.213e+6 
         3045.5        2.211e+6 
         3045.8        2.196e+6 
         3046.1        2.164e+6 
         3046.4        2.117e+6 
         3046.7        2.064e+6 
           3047        2.013e+6 
         3047.3        1.977e+6 
         3047.6        1.966e+6 
         3047.9        1.984e+6 
         3048.2        2.028e+6 
         3048.5         2.09e+6 
         3048.8        2.162e+6 
         3049.1        2.233e+6 
         3049.4        2.296e+6 
         3049.7         2.35e+6 
           3050        2.398e+6 
         3050.3        2.444e+6 
         3050.6        2.494e+6 
         3050.9        2.549e+6 
         3051.2        2.606e+6 
         3051.5        2.657e+6 
         3051.8        2.692e+6 
         3052.1        2.701e+6 
         3052.4        2.679e+6 
         3052.7        2.629e+6 
           3053         2.56e+6 
         3053.3        2.484e+6 
         3053.6        2.417e+6 
         3053.9        2.369e+6 
         3054.2        2.347e+6 
         3054.5        2.352e+6 
         3054.8        2.376e+6 
         3055.1        2.404e+6 
         3055.4        2.424e+6 
         3055.7        2.422e+6 
           3056        2.389e+6 
         3056.3        2.326e+6 
         3056.6        2.239e+6 
         3056.9         2.14e+6 
         3057.2        2.041e+6 
         3057.5        1.956e+6 
         3057.8         1.89e+6 
         3058.1        1.848e+6 
         3058.4        1.828e+6 
         3058.7        1.829e+6 
           3059        1.853e+6 
         3059.3          1.9e+6 
         3059.6        1.969e+6 
         3059.9        2.055e+6 
         3060.2        2.151e+6 
         3060.5        2.245e+6 
         3060.8        2.323e+6 
         3061.1        2.377e+6 
         3061.4        2.401e+6 
         3061.7        2.395e+6 
           3062        2.363e+6 
         3062.3        2.309e+6 
         3062.6        2.242e+6 
         3062.9         2.17e+6 
         3063.2        2.101e+6 
         3063.5        2.041e+6 
         3063.8        1.993e+6 
         3064.1        1.957e+6 
         3064.4        1.929e+6 
         3064.7        1.904e+6 
           3065        1.876e+6 
         3065.3         1.84e+6 
         3065.6        1.797e+6 
         3065.9        1.751e+6 
         3066.2        1.707e+6 
         3066.5        1.673e+6 
         3066.8        1.657e+6 
         3067.1        1.663e+6 
         3067.4        1.692e+6 
         3067.7        1.745e+6 
           3068        1.817e+6 
         3068.3          1.9e+6 
         3068.6        1.987e+6 
         3068.9        2.069e+6 
         3069.2        2.137e+6 
         3069.5        2.187e+6 
         3069.8        2.217e+6 
         3070.1         2.23e+6 
         3070.4        2.229e+6 
         3070.7        2.218e+6 
           3071        2.203e+6 
         3071.3        2.187e+6 
         3071.6        2.174e+6 
         3071.9        2.169e+6 
         3072.2        2.175e+6 
         3072.5        2.197e+6 
         3072.8        2.231e+6 
         3073.1        2.272e+6 
         3073.4         2.31e+6 
         3073.7        2.336e+6 
           3074         2.34e+6 
         3074.3        2.323e+6 
         3074.6         2.29e+6 
         3074.9        2.251e+6 
         3075.2        2.222e+6 
         3075.5        2.211e+6 
         3075.8        2.223e+6 
         3076.1        2.253e+6 
         3076.4         2.29e+6 
         3076.7        2.322e+6 
           3077        2.337e+6 
         3077.3        2.331e+6 
         3077.6         2.31e+6 
         3077.9         2.28e+6 
         3078.2        2.254e+6 
         3078.5         2.24e+6 
         3078.8        2.242e+6 
         3079.1        2.259e+6 
         3079.4        2.282e+6 
         3079.7        2.301e+6 
           3080        2.308e+6 
         3080.3        2.297e+6 
         3080.6        2.268e+6 
         3080.9        2.225e+6 
         3081.2        2.174e+6 
         3081.5        2.123e+6 
         3081.8        2.081e+6 
         3082.1        2.055e+6 
         3082.4         2.05e+6 
         3082.7        2.068e+6 
           3083        2.112e+6 
         3083.3        2.178e+6 
         3083.6        2.262e+6 
         3083.9        2.353e+6 
         3084.2        2.443e+6 
         3084.5        2.519e+6 
         3084.8        2.572e+6 
         3085.1        2.595e+6 
         3085.4        2.584e+6 
         3085.7        2.539e+6 
           3086        2.465e+6 
         3086.3        2.372e+6 
         3086.6         2.27e+6 
         3086.9        2.171e+6 
         3087.2        2.087e+6 
         3087.5        2.024e+6 
         3087.8        1.983e+6 
         3088.1        1.961e+6 
         3088.4        1.952e+6 
         3088.7        1.946e+6 
           3089        1.939e+6 
         3089.3         1.93e+6 
         3089.6        1.922e+6 
         3089.9        1.919e+6 
         3090.2        1.924e+6 
         3090.5        1.937e+6 
         3090.8        1.952e+6 
         3091.1        1.964e+6 
         3091.4        1.965e+6 
         3091.7        1.951e+6 
           3092        1.923e+6 
         3092.3        1.886e+6 
         3092.6        1.849e+6 
         3092.9        1.825e+6 
         3093.2        1.821e+6 
         3093.5        1.841e+6 
         3093.8        1.881e+6 
         3094.1        1.931e+6 
         3094.4        1.979e+6 
         3094.7        2.014e+6 
           3095        2.029e+6 
         3095.3         2.02e+6 
         3095.6        1.992e+6 
         3095.9        1.951e+6 
         3096.2         1.91e+6 
         3096.5        1.878e+6 
         3096.8        1.862e+6 
         3097.1        1.865e+6 
         3097.4        1.879e+6 
         3097.7        1.895e+6 
           3098          1.9e+6 
         3098.3        1.885e+6 
         3098.6        1.843e+6 
         3098.9        1.777e+6 
         3099.2        1.695e+6 
         3099.5        1.607e+6 
         3099.8        1.526e+6 
         3100.1        1.464e+6 
         3100.4        1.429e+6 
         3100.7        1.425e+6 
           3101        1.455e+6 
         3101.3        1.517e+6 
         3101.6        1.606e+6 
         3101.9        1.716e+6 
         3102.2        1.836e+6 
         3102.5        1.956e+6 
         3102.8        2.064e+6 
         3103.1         2.15e+6 
         3103.4        2.206e+6 
         3103.7        2.228e+6 
           3104        2.218e+6 
         3104.3        2.183e+6 
         3104.6        2.135e+6 
         3104.9        2.087e+6 
         3105.2        2.052e+6 
         3105.5        2.041e+6 
         3105.8        2.058e+6 
         3106.1        2.105e+6 
         3106.4        2.174e+6 
         3106.7        2.255e+6 
           3107        2.339e+6 
         3107.3        2.413e+6 
         3107.6        2.471e+6 
         3107.9        2.507e+6 
         3108.2         2.52e+6 
         3108.5        2.512e+6 
         3108.8        2.487e+6 
         3109.1        2.452e+6 
         3109.4        2.416e+6 
         3109.7        2.384e+6 
           3110        2.363e+6 
         3110.3        2.358e+6 
         3110.6        2.369e+6 
         3110.9        2.392e+6 
         3111.2        2.425e+6 
         3111.5        2.461e+6 
         3111.8        2.494e+6 
         3112.1        2.518e+6 
         3112.4        2.528e+6 
         3112.7        2.521e+6 
           3113        2.496e+6 
         3113.3        2.457e+6 
         3113.6        2.412e+6 
         3113.9         2.37e+6 
         3114.2        2.342e+6 
         3114.5        2.333e+6 
         3114.8        2.347e+6 
         3115.1        2.375e+6 
         3115.4        2.407e+6 
         3115.7         2.43e+6 
           3116         2.43e+6 
         3116.3        2.403e+6 
         3116.6        2.346e+6 
         3116.9        2.268e+6 
         3117.2        2.178e+6 
         3117.5        2.089e+6 
         3117.8         2.01e+6 
         3118.1        1.948e+6 
         3118.4        1.905e+6 
         3118.7         1.88e+6 
           3119        1.871e+6 
         3119.3        1.873e+6 
         3119.6        1.884e+6 
         3119.9          1.9e+6 
         3120.2         1.92e+6 
         3120.5        1.942e+6 
         3120.8        1.962e+6 
         3121.1         1.98e+6 
         3121.4        1.997e+6 
         3121.7        2.018e+6 
           3122        2.047e+6 
         3122.3        2.087e+6 
         3122.6        2.137e+6 
         3122.9        2.191e+6 
         3123.2         2.24e+6 
         3123.5        2.273e+6 
         3123.8        2.282e+6 
         3124.1        2.265e+6 
         3124.4        2.227e+6 
         3124.7         2.18e+6 
           3125        2.139e+6 
         3125.3        2.121e+6 
         3125.6        2.133e+6 
         3125.9        2.175e+6 
         3126.2        2.239e+6 
         3126.5        2.311e+6 
         3126.8        2.374e+6 
         3127.1        2.415e+6 
         3127.4        2.427e+6 
         3127.7        2.411e+6 
           3128        2.374e+6 
         3128.3        2.325e+6 
         3128.6        2.272e+6 
         3128.9        2.223e+6 
         3129.2        2.178e+6 
         3129.5        2.137e+6 
         3129.8        2.099e+6 
         3130.1        2.065e+6 
         3130.4        2.036e+6 
         3130.7        2.015e+6 
           3131        2.005e+6 
         3131.3        2.004e+6 
         3131.6         2.01e+6 
         3131.9         2.02e+6 
         3132.2        2.028e+6 
         3132.5        2.033e+6 
         3132.8        2.034e+6 
         3133.1        2.031e+6 
         3133.4        2.029e+6 
         3133.7        2.032e+6 
           3134        2.044e+6 
         3134.3        2.068e+6 
         3134.6        2.102e+6 
         3134.9        2.143e+6 
         3135.2        2.184e+6 
         3135.5        2.221e+6 
         3135.8        2.253e+6 
         3136.1        2.281e+6 
         3136.4        2.309e+6 
         3136.7        2.342e+6 
           3137        2.379e+6 
         3137.3        2.418e+6 
         3137.6        2.454e+6 
         3137.9         2.48e+6 
         3138.2        2.495e+6 
         3138.5        2.498e+6 
         3138.8        2.492e+6 
         3139.1        2.483e+6 
         3139.4        2.477e+6 
         3139.7        2.477e+6 
           3140        2.484e+6 
         3140.3        2.495e+6 
         3140.6        2.505e+6 
         3140.9        2.506e+6 
         3141.2        2.489e+6 
         3141.5        2.446e+6 
         3141.8        2.374e+6 
         3142.1         2.27e+6 
         3142.4        2.139e+6 
         3142.7        1.987e+6 
           3143        1.824e+6 
         3143.3        1.664e+6 
         3143.6        1.522e+6 
         3143.9         1.41e+6 
         3144.2         1.34e+6 
         3144.5        1.318e+6 
         3144.8        1.345e+6 
         3145.1        1.414e+6 
         3145.4        1.515e+6 
         3145.7        1.634e+6 
           3146        1.758e+6 
         3146.3        1.873e+6 
         3146.6        1.974e+6 
         3146.9        2.059e+6 
         3147.2        2.131e+6 
         3147.5        2.192e+6 
         3147.8        2.249e+6 
         3148.1        2.301e+6 
         3148.4        2.349e+6 
         3148.7         2.39e+6 
           3149        2.424e+6 
         3149.3         2.45e+6 
         3149.6         2.47e+6 
         3149.9        2.485e+6 
         3150.2        2.496e+6 
         3150.5        2.504e+6 
         3150.8        2.506e+6 
         3151.1        2.503e+6 
         3151.4        2.497e+6 
         3151.7        2.491e+6 
           3152        2.486e+6 
         3152.3        2.485e+6 
         3152.6        2.486e+6 
         3152.9        2.486e+6 
         3153.2         2.48e+6 
         3153.5        2.466e+6 
         3153.8        2.443e+6 
         3154.1        2.412e+6 
         3154.4        2.376e+6 
         3154.7         2.34e+6 
           3155        2.307e+6 
         3155.3        2.277e+6 
         3155.6        2.248e+6 
         3155.9        2.218e+6 
         3156.2        2.183e+6 
         3156.5        2.139e+6 
         3156.8        2.088e+6 
         3157.1         2.03e+6 
         3157.4        1.972e+6 
         3157.7        1.918e+6 
           3158        1.874e+6 
         3158.3        1.845e+6 
         3158.6        1.832e+6 
         3158.9        1.832e+6 
         3159.2         1.84e+6 
         3159.5        1.849e+6 
         3159.8         1.85e+6 
         3160.1        1.837e+6 
         3160.4        1.812e+6 
         3160.7        1.777e+6 
           3161        1.743e+6 
         3161.3         1.72e+6 
         3161.6        1.718e+6 
         3161.9        1.741e+6 
         3162.2        1.792e+6 
         3162.5        1.864e+6 
         3162.8        1.949e+6 
         3163.1        2.035e+6 
         3163.4        2.108e+6 
         3163.7        2.162e+6 
           3164        2.194e+6 
         3164.3        2.206e+6 
         3164.6        2.206e+6 
         3164.9        2.204e+6 
         3165.2        2.207e+6 
         3165.5         2.22e+6 
         3165.8        2.244e+6 
         3166.1        2.274e+6 
         3166.4        2.305e+6 
         3166.7        2.328e+6 
           3167        2.337e+6 
         3167.3        2.329e+6 
         3167.6        2.303e+6 
         3167.9        2.269e+6 
         3168.2        2.234e+6 
         3168.5         2.21e+6 
         3168.8        2.207e+6 
         3169.1        2.229e+6 
         3169.4        2.275e+6 
         3169.7        2.341e+6 
           3170        2.417e+6 
         3170.3        2.495e+6 
         3170.6        2.567e+6 
         3170.9        2.628e+6 
         3171.2        2.673e+6 
         3171.5        2.702e+6 
         3171.8        2.716e+6 
         3172.1        2.714e+6 
         3172.4        2.699e+6 
         3172.7        2.671e+6 
           3173        2.634e+6 
         3173.3        2.592e+6 
         3173.6         2.55e+6 
         3173.9        2.515e+6 
         3174.2         2.49e+6 
         3174.5        2.482e+6 
         3174.8        2.491e+6 
         3175.1        2.519e+6 
         3175.4         2.56e+6 
         3175.7        2.608e+6 
           3176        2.652e+6 
         3176.3        2.682e+6 
         3176.6         2.69e+6 
         3176.9        2.672e+6 
         3177.2        2.631e+6 
         3177.5         2.57e+6 
         3177.8        2.498e+6 
         3178.1        2.421e+6 
