# Granada HRES Library
# atmosphere = Phoenix  (atmosphere model used)
# feh = -10  (value for [Fe/H] for the model.)
# logg = 5 log(cm/s2) (value for Log(G) for the model.)
# teff = 3500 K (value for the effective temperature for the model. Temperatures are given in K)
#
# column 1: WAVELENGTH (ANGSTROM), Wavelength in Angstrom
# column 2: FLUX (ERG/CM2/S/A), Flux in erg/cm2/s/A
         3000.2           332.7 
         3000.5             308 
         3000.8           289.9 
         3001.1           279.2 
         3001.4           273.7 
         3001.7           270.2 
           3002           267.6 
         3002.3           269.4 
         3002.6           284.4 
         3002.9           322.8 
         3003.2           392.9 
         3003.5           496.8 
         3003.8           628.1 
         3004.1           773.4 
         3004.4           914.5 
         3004.7            1033 
           3005            1112 
         3005.3            1143 
         3005.6            1121 
         3005.9            1048 
         3006.2             935 
         3006.5           798.6 
         3006.8           659.6 
         3007.1           537.5 
         3007.4           446.6 
         3007.7           394.3 
           3008           381.1 
         3008.3           404.5 
         3008.6           460.4 
         3008.9           546.5 
         3009.2           660.5 
         3009.5           797.3 
         3009.8           945.2 
         3010.1            1084 
         3010.4            1192 
         3010.7            1249 
           3011            1253 
         3011.3            1220 
         3011.6            1178 
         3011.9            1155 
         3012.2            1167 
         3012.5            1210 
         3012.8            1269 
         3013.1            1321 
         3013.4            1348 
         3013.7            1340 
           3014            1300 
         3014.3            1234 
         3014.6            1159 
         3014.9            1085 
         3015.2            1022 
         3015.5           970.5 
         3015.8           927.3 
         3016.1           887.1 
         3016.4           844.1 
         3016.7             795 
           3017           739.1 
         3017.3           679.7 
         3017.6           621.7 
         3017.9           568.4 
         3018.2           519.9 
         3018.5           473.9 
         3018.8             427 
         3019.1           377.9 
         3019.4           327.2 
         3019.7           278.1 
           3020           234.5 
         3020.3           201.8 
         3020.6           185.2 
         3020.9           188.9 
         3021.2           214.3 
         3021.5           259.2 
         3021.8           317.4 
         3022.1           379.9 
         3022.4             436 
         3022.7           476.8 
           3023           496.5 
         3023.3           495.7 
         3023.6             481 
         3023.9           461.7 
         3024.2           445.3 
         3024.5           434.4 
         3024.8           427.4 
         3025.1           423.7 
         3025.4           427.8 
         3025.7           450.7 
           3026           504.9 
         3026.3           597.8 
         3026.6           727.3 
         3026.9             882 
         3027.2            1046 
         3027.5            1203 
         3027.8            1347 
         3028.1            1473 
         3028.4            1582 
         3028.7            1676 
           3029            1752 
         3029.3            1802 
         3029.6            1819 
         3029.9            1797 
         3030.2            1736 
         3030.5            1648 
         3030.8            1558 
         3031.1            1493 
         3031.4            1483 
         3031.7            1540 
           3032            1653 
         3032.3            1788 
         3032.6            1901 
         3032.9            1957 
         3033.2            1944 
         3033.5            1874 
         3033.8            1777 
         3034.1            1682 
         3034.4            1610 
         3034.7            1558 
           3035            1509 
         3035.3            1440 
         3035.6            1336 
         3035.9            1192 
         3036.2            1023 
         3036.5           850.9 
         3036.8           700.8 
         3037.1           595.5 
         3037.4           550.7 
         3037.7           572.6 
           3038           655.9 
         3038.3           784.8 
         3038.6             936 
         3038.9            1083 
         3039.2            1200 
         3039.5            1273 
         3039.8            1295 
         3040.1            1274 
         3040.4            1225 
         3040.7            1165 
           3041            1107 
         3041.3            1063 
         3041.6            1042 
         3041.9            1053 
         3042.2            1100 
         3042.5            1177 
         3042.8            1265 
         3043.1            1347 
         3043.4            1406 
         3043.7            1437 
           3044            1441 
         3044.3            1426 
         3044.6            1399 
         3044.9            1364 
         3045.2            1320 
         3045.5            1259 
         3045.8            1175 
         3046.1            1063 
         3046.4           928.5 
         3046.7             786 
           3047           655.3 
         3047.3           556.5 
         3047.6           504.3 
         3047.9             504 
         3048.2             552 
         3048.5           636.1 
         3048.8             737 
         3049.1             832 
         3049.4           900.2 
         3049.7           930.5 
           3050           926.9 
         3050.3           908.3 
         3050.6           901.7 
         3050.9           930.7 
         3051.2            1005 
         3051.5            1118 
         3051.8            1248 
         3052.1            1365 
         3052.4            1445 
         3052.7            1467 
           3053            1429 
         3053.3            1343 
         3053.6            1239 
         3053.9            1147 
         3054.2            1096 
         3054.5            1096 
         3054.8            1139 
         3055.1            1200 
         3055.4            1252 
         3055.7            1267 
           3056            1231 
         3056.3            1146 
         3056.6            1025 
         3056.9           885.7 
         3057.2           750.8 
         3057.5             635 
         3057.8           546.1 
         3058.1           484.7 
         3058.4           450.1 
         3058.7           443.8 
           3059           470.7 
         3059.3           536.5 
         3059.6           642.5 
         3059.9           782.2 
         3060.2           941.8 
         3060.5            1103 
         3060.8            1249 
         3061.1            1367 
         3061.4            1453 
         3061.7            1504 
           3062            1515 
         3062.3            1479 
         3062.6            1389 
         3062.9            1246 
         3063.2            1069 
         3063.5             885 
         3063.8           728.7 
         3064.1           623.5 
         3064.4           576.2 
         3064.7           576.3 
           3065           601.6 
         3065.3           628.1 
         3065.6           638.6 
         3065.9           627.3 
         3066.2           599.3 
         3066.5           564.7 
         3066.8           533.3 
         3067.1           512.4 
         3067.4           506.9 
         3067.7             520 
           3068           553.2 
         3068.3           604.4 
         3068.6           667.8 
         3068.9           734.6 
         3069.2           797.2 
         3069.5           854.3 
         3069.8           912.4 
         3070.1           983.3 
         3070.4            1077 
         3070.7            1193 
           3071            1325 
         3071.3            1464 
         3071.6            1608 
         3071.9            1761 
         3072.2            1927 
         3072.5            2092 
         3072.8            2226 
         3073.1            2294 
         3073.4            2277 
         3073.7            2185 
           3074            2048 
         3074.3            1900 
         3074.6            1767 
         3074.9            1664 
         3075.2            1603 
         3075.5            1594 
         3075.8            1638 
         3076.1            1723 
         3076.4            1822 
         3076.7            1904 
           3077            1943 
         3077.3            1934 
         3077.6            1883 
         3077.9            1808 
         3078.2            1725 
         3078.5            1645 
         3078.8            1563 
         3079.1            1470 
         3079.4            1356 
         3079.7            1219 
           3080            1068 
         3080.3           914.4 
         3080.6           768.9 
         3080.9           639.3 
         3081.2           530.2 
         3081.5           445.1 
         3081.8           387.3 
         3082.1           358.4 
         3082.4           358.2 
         3082.7           384.1 
           3083           432.8 
         3083.3           500.7 
         3083.6           582.8 
         3083.9           672.6 
         3084.2           762.3 
         3084.5           846.6 
         3084.8           924.1 
         3085.1           995.5 
         3085.4            1060 
         3085.7            1112 
           3086            1148 
         3086.3            1173 
         3086.6            1197 
         3086.9            1238 
         3087.2            1307 
         3087.5            1402 
         3087.8            1502 
         3088.1            1577 
         3088.4            1596 
         3088.7            1539 
           3089            1411 
         3089.3            1235 
         3089.6            1043 
         3089.9             867 
         3090.2           723.3 
         3090.5           615.1 
         3090.8           534.6 
         3091.1           470.9 
         3091.4           415.6 
         3091.7             366 
           3092           324.5 
         3092.3           297.3 
         3092.6           290.7 
         3092.9           308.9 
         3093.2           351.1 
         3093.5           410.8 
         3093.8           478.1 
         3094.1           542.4 
         3094.4             595 
         3094.7           631.3 
           3095           651.1 
         3095.3           658.2 
         3095.6           660.7 
         3095.9           670.6 
         3096.2           701.6 
         3096.5           763.7 
         3096.8           856.4 
         3097.1           964.7 
         3097.4            1061 
         3097.7            1114 
           3098            1104 
         3098.3            1028 
         3098.6           905.5 
         3098.9           766.4 
         3099.2           641.1 
         3099.5           550.7 
         3099.8           502.8 
         3100.1           491.4 
         3100.4           502.4 
         3100.7           520.9 
           3101           539.5 
         3101.3           598.6 
         3101.6           667.9 
         3101.9           780.8 
         3102.2           940.3 
         3102.5            1140 
         3102.8            1362 
         3103.1            1581 
         3103.4            1769 
         3103.7            1891 
           3104            1923 
         3104.3            1854 
         3104.6            1700 
         3104.9            1495 
         3105.2            1285 
         3105.5            1115 
         3105.8            1014 
         3106.1           989.4 
         3106.4            1031 
         3106.7            1117 
           3107            1223 
         3107.3            1326 
         3107.6            1409 
         3107.9            1460 
         3108.2            1488 
         3108.5            1516 
         3108.8            1579 
         3109.1            1708 
         3109.4            1911 
         3109.7            2166 
           3110            2426 
         3110.3            2633 
         3110.6            2739 
         3110.9            2724 
         3111.2            2604 
         3111.5            2423 
         3111.8            2235 
         3112.1            2090 
         3112.4            2017 
         3112.7            2033 
           3113            2147 
         3113.3            2369 
         3113.6            2702 
         3113.9            3136 
         3114.2            3634 
         3114.5            4128 
         3114.8            4523 
         3115.1            4728 
         3115.4            4681 
         3115.7            4382 
           3116            3890 
         3116.3            3321 
         3116.6            2809 
         3116.9            2469 
         3117.2            2370 
         3117.5            2514 
         3117.8            2838 
         3118.1            3235 
         3118.4            3594 
         3118.7            3837 
           3119            3952 
         3119.3            3978 
         3119.6            3975 
         3119.9            3980 
         3120.2            3976 
         3120.5            3910 
         3120.8            3724 
         3121.1            3400 
         3121.4            2982 
         3121.7            2556 
           3122            2210 
         3122.3            1999 
         3122.6            1934 
         3122.9            1982 
         3123.2            2101 
         3123.5            2251 
         3123.8            2415 
         3124.1            2584 
         3124.4            2752 
         3124.7            2913 
           3125            3062 
         3125.3            3199 
         3125.6            3337 
         3125.9            3480 
         3126.2            3622 
         3126.5            3731 
         3126.8            3757 
         3127.1            3664 
         3127.4            3455 
         3127.7            3175 
           3128            2893 
         3128.3            2666 
         3128.6            2516 
         3128.9            2441 
         3129.2            2429 
         3129.5            2476 
         3129.8            2593 
         3130.1            2791 
         3130.4            3061 
         3130.7            3371 
           3131            3661 
         3131.3            3857 
         3131.6            3903 
         3131.9            3770 
         3132.2            3474 
         3132.5            3069 
         3132.8            2628 
         3133.1            2233 
         3133.4            1951 
         3133.7            1830 
           3134            1883 
         3134.3            2078 
         3134.6            2343 
         3134.9            2581 
         3135.2            2718 
         3135.5            2723 
         3135.8            2625 
         3136.1            2500 
         3136.4            2440 
         3136.7            2518 
           3137            2772 
         3137.3            3182 
         3137.6            3676 
         3137.9            4143 
         3138.2            4473 
         3138.5            4590 
         3138.8            4483 
         3139.1            4201 
         3139.4            3827 
         3139.7            3450 
           3140            3138 
         3140.3            2934 
         3140.6            2844 
         3140.9            2856 
         3141.2            2939 
         3141.5            3054 
         3141.8            3162 
         3142.1            3221 
         3142.4            3202 
         3142.7            3105 
           3143            2964 
         3143.3            2833 
         3143.6            2766 
         3143.9            2783 
         3144.2            2865 
         3144.5            2973 
         3144.8            3075 
         3145.1            3148 
         3145.4            3185 
         3145.7            3171 
           3146            3100 
         3146.3            2993 
         3146.6            2913 
         3146.9            2943 
         3147.2            3149 
         3147.5            3535 
         3147.8            4036 
         3148.1            4533 
         3148.4            4897 
         3148.7            5032 
           3149            4905 
         3149.3            4554 
         3149.6            4066 
         3149.9            3550 
         3150.2            3105 
         3150.5            2803 
         3150.8            2683 
         3151.1            2740 
         3151.4            2946 
         3151.7            3239 
           3152            3547 
         3152.3            3800 
         3152.6            3944 
         3152.9            3959 
         3153.2            3864 
         3153.5            3715 
         3153.8            3595 
         3154.1            3590 
         3154.4            3750 
         3154.7            4071 
           3155            4502 
         3155.3            4967 
         3155.6            5399 
         3155.9            5769 
         3156.2            6086 
         3156.5            6386 
         3156.8            6718 
         3157.1            7112 
         3157.4            7561 
         3157.7            8033 
           3158            8481 
         3158.3            8866 
         3158.6            9150 
         3158.9            9293 
         3159.2            9245 
         3159.5            8967 
         3159.8            8474 
         3160.1            7854 
         3160.4            7255 
         3160.7            6822 
           3161            6642 
         3161.3            6721 
         3161.6            6994 
         3161.9            7375 
         3162.2            7771 
         3162.5            8108 
         3162.8            8320 
         3163.1            8369 
         3163.4            8257 
         3163.7            8042 
           3164            7807 
         3164.3            7641 
         3164.6            7608 
         3164.9            7753 
         3165.2            8119 
         3165.5            8742 
         3165.8            9629 
         3166.1           10710 
         3166.4           11810 
         3166.7           12720 
           3167           13220 
         3167.3           13170 
         3167.6           12640 
         3167.9           11800 
         3168.2           10970 
         3168.5           10440 
         3168.8           10400 
         3169.1           10850 
         3169.4           11630 
         3169.7           12440 
           3170           13020 
         3170.3           13240 
         3170.6           13140 
         3170.9           12900 
         3171.2           12700 
         3171.5           12650 
         3171.8           12750 
         3172.1           12890 
         3172.4           12970 
         3172.7           12980 
           3173           12950 
         3173.3           12990 
         3173.6           13160 
         3173.9           13470 
         3174.2           13820 
         3174.5           14140 
         3174.8           14370 
         3175.1           14530 
         3175.4           14690 
         3175.7           14830 
           3176           14890 
         3176.3           14790 
         3176.6           14450 
         3176.9           13890 
         3177.2           13220 
         3177.5           12600 
         3177.8           12150 
         3178.1           11860 
