# Granada HRES Library
# atmosphere = Phoenix  (atmosphere model used)
# feh = -5  (value for [Fe/H] for the model.)
# logg = 1.5 log(cm/s2) (value for Log(G) for the model.)
# teff = 3000 K (value for the effective temperature for the model. Temperatures are given in K)
#
# column 1: WAVELENGTH (ANGSTROM), Wavelength in Angstrom
# column 2: FLUX (ERG/CM2/S/A), Flux in erg/cm2/s/A
         3000.2           16.34 
         3000.5           13.03 
         3000.8           10.89 
         3001.1           9.771 
         3001.4           9.324 
         3001.7           9.181 
           3002           9.142 
         3002.3           9.299 
         3002.6           10.03 
         3002.9           11.83 
         3003.2           15.13 
         3003.5           20.08 
         3003.8           26.49 
         3004.1           33.76 
         3004.4           41.11 
         3004.7           47.64 
           3005           52.57 
         3005.3           55.22 
         3005.6            55.2 
         3005.9           52.44 
         3006.2           47.41 
         3006.5           40.98 
         3006.8           34.24 
         3007.1            28.2 
         3007.4           23.62 
         3007.7           20.95 
           3008            20.4 
         3008.3           22.12 
         3008.6           26.22 
         3008.9           32.99 
         3009.2           42.49 
         3009.5            54.3 
         3009.8              67 
         3010.1           78.33 
         3010.4           85.91 
         3010.7            88.3 
           3011           85.77 
         3011.3           80.11 
         3011.6           73.79 
         3011.9           68.75 
         3012.2           65.83 
         3012.5           64.74 
         3012.8           64.63 
         3013.1           64.77 
         3013.4           64.79 
         3013.7           64.63 
           3014           64.29 
         3014.3           63.75 
         3014.6           63.02 
         3014.9           62.18 
         3015.2            61.3 
         3015.5           60.26 
         3015.8           58.81 
         3016.1           56.63 
         3016.4           53.59 
         3016.7            49.7 
           3017           45.26 
         3017.3           40.73 
         3017.6           36.55 
         3017.9           32.91 
         3018.2           29.61 
         3018.5           26.31 
         3018.8           22.74 
         3019.1           18.87 
         3019.4           14.96 
         3019.7           11.37 
           3020           8.434 
         3020.3           6.427 
         3020.6           5.553 
         3020.9           5.958 
         3021.2           7.698 
         3021.5           10.69 
         3021.8           14.66 
         3022.1           19.08 
         3022.4            23.3 
         3022.7           26.57 
           3023           28.34 
         3023.3           28.38 
         3023.6           26.94 
         3023.9           24.65 
         3024.2           22.19 
         3024.5           20.08 
         3024.8           18.53 
         3025.1           17.61 
         3025.4           17.38 
         3025.7           18.01 
           3026           19.61 
         3026.3           22.03 
         3026.6           24.78 
         3026.9           27.29 
         3027.2           29.26 
         3027.5           30.95 
         3027.8           33.12 
         3028.1            36.7 
         3028.4           42.29 
         3028.7           49.65 
           3029           57.71 
         3029.3           64.85 
         3029.6           69.65 
         3029.9           71.59 
         3030.2           71.37 
         3030.5           70.76 
         3030.8              72 
         3031.1           76.79 
         3031.4           85.43 
         3031.7           96.26 
           3032             106 
         3032.3             111 
         3032.6           108.8 
         3032.9           99.45 
         3033.2            85.7 
         3033.5            71.3 
         3033.8           59.88 
         3034.1            53.5 
         3034.4           52.31 
         3034.7           54.74 
           3035           58.36 
         3035.3           60.76 
         3035.6           60.36 
         3035.9            56.7 
         3036.2           50.42 
         3036.5            42.9 
         3036.8           35.92 
         3037.1           31.19 
         3037.4            29.9 
         3037.7            32.4 
           3038           38.19 
         3038.3           46.09 
         3038.6           54.78 
         3038.9            63.2 
         3039.2           70.61 
         3039.5           76.35 
         3039.8           79.62 
         3040.1            79.7 
         3040.4           76.41 
         3040.7           70.52 
           3041           63.73 
         3041.3           58.22 
         3041.6           55.73 
         3041.9           56.94 
         3042.2           61.21 
         3042.5           66.85 
         3042.8           71.91 
         3043.1           74.95 
         3043.4           75.53 
         3043.7           74.22 
           3044            72.1 
         3044.3           70.22 
         3044.6           69.27 
         3044.9           69.36 
         3045.2           70.05 
         3045.5           70.35 
         3045.8           69.07 
         3046.1           65.21 
         3046.4            58.5 
         3046.7           49.66 
           3047           40.22 
         3047.3           32.07 
         3047.6           26.82 
         3047.9           25.48 
         3048.2           28.25 
         3048.5           34.51 
         3048.8            42.8 
         3049.1           51.11 
         3049.4           57.23 
         3049.7           59.66 
           3050           58.15 
         3050.3           53.92 
         3050.6           48.98 
         3050.9           45.32 
         3051.2           44.06 
         3051.5           45.25 
         3051.8           48.04 
         3052.1           51.07 
         3052.4           52.97 
         3052.7           52.76 
           3053           50.25 
         3053.3           46.06 
         3053.6           41.47 
         3053.9           37.76 
         3054.2           35.87 
         3054.5           35.97 
         3054.8           37.52 
         3055.1           39.51 
         3055.4           40.93 
         3055.7           41.12 
           3056           40.03 
         3056.3           38.04 
         3056.6           35.75 
         3056.9           33.64 
         3057.2           31.94 
         3057.5           30.58 
         3057.8           29.32 
         3058.1           27.98 
         3058.4            26.7 
         3058.7           26.03 
           3059           26.79 
         3059.3           29.69 
         3059.6           34.99 
         3059.9           42.33 
         3060.2           50.92 
         3060.5           59.83 
         3060.8           68.19 
         3061.1           75.38 
         3061.4            80.9 
         3061.7           84.17 
           3062           84.42 
         3062.3           80.86 
         3062.6           73.26 
         3062.9           62.34 
         3063.2           49.88 
         3063.5           38.05 
         3063.8           28.74 
         3064.1           22.82 
         3064.4            20.1 
         3064.7           19.71 
           3065           20.65 
         3065.3           22.32 
         3065.6           24.57 
         3065.9           27.54 
         3066.2           31.21 
         3066.5           35.13 
         3066.8           38.53 
         3067.1            40.7 
         3067.4           41.38 
         3067.7           40.91 
           3068           39.89 
         3068.3           38.79 
         3068.6           37.62 
         3068.9           36.08 
         3069.2           33.94 
         3069.5            31.4 
         3069.8           29.29 
         3070.1           28.79 
         3070.4           30.88 
         3070.7           35.87 
           3071           43.14 
         3071.3           51.44 
         3071.6           59.49 
         3071.9           66.53 
         3072.2           72.54 
         3072.5           77.99 
         3072.8           83.33 
         3073.1           88.75 
         3073.4              94 
         3073.7            98.5 
           3074           101.5 
         3074.3           102.6 
         3074.6           102.1 
         3074.9           101.6 
         3075.2             103 
         3075.5           108.1 
         3075.8             117 
         3076.1           127.7 
         3076.4             137 
         3076.7           141.9 
           3077           140.8 
         3077.3           134.5 
         3077.6           125.2 
         3077.9           115.4 
         3078.2           106.6 
         3078.5           99.24 
         3078.8           92.58 
         3079.1           85.37 
         3079.4           76.75 
         3079.7           66.74 
           3080           56.05 
         3080.3           45.67 
         3080.6           36.43 
         3080.9           28.81 
         3081.2           22.99 
         3081.5           19.09 
         3081.8           17.08 
         3082.1           16.78 
         3082.4           17.79 
         3082.7           19.56 
           3083           21.72 
         3083.3           24.23 
         3083.6           27.34 
         3083.9           31.42 
         3084.2           36.65 
         3084.5           43.01 
         3084.8           50.22 
         3085.1           57.74 
         3085.4            64.7 
         3085.7           70.27 
           3086           74.25 
         3086.3           77.64 
         3086.6            82.5 
         3086.9           91.07 
         3087.2           104.5 
         3087.5           121.8 
         3087.8           139.7 
         3088.1           153.4 
         3088.4           158.6 
         3088.7           152.9 
           3089           136.9 
         3089.3           113.9 
         3089.6           88.42 
         3089.9           64.68 
         3090.2           45.39 
         3090.5           31.49 
         3090.8           22.51 
         3091.1           17.24 
         3091.4           14.34 
         3091.7           12.83 
           3092           12.23 
         3092.3           12.58 
         3092.6           14.28 
         3092.9           17.73 
         3093.2           23.03 
         3093.5           29.85 
         3093.8           37.41 
         3094.1           44.76 
         3094.4           50.95 
         3094.7           55.23 
           3095           57.18 
         3095.3           56.89 
         3095.6           55.38 
         3095.9           54.71 
         3096.2           57.63 
         3096.5           66.52 
         3096.8            81.9 
         3097.1           101.5 
         3097.4           120.4 
         3097.7           132.6 
           3098             134 
         3098.3           123.7 
         3098.6           104.7 
         3098.9           82.24 
         3099.2           61.89 
         3099.5           47.24 
         3099.8           39.32 
         3100.1           36.92 
         3100.4           37.64 
         3100.7            39.2 
           3101           40.47 
         3101.3           44.79 
         3101.6           51.23 
         3101.9            62.1 
         3102.2           77.03 
         3102.5           94.43 
         3102.8           112.1 
         3103.1           128.3 
         3103.4           141.4 
         3103.7           150.7 
           3104           154.9 
         3104.3           152.8 
         3104.6           143.6 
         3104.9           128.3 
         3105.2           108.9 
         3105.5           89.27 
         3105.8           72.56 
         3106.1           60.91 
         3106.4           55.03 
         3106.7           54.57 
           3107           58.45 
         3107.3           64.96 
         3107.6            71.9 
         3107.9           77.14 
         3108.2           79.41 
         3108.5           78.94 
         3108.8           77.49 
         3109.1           77.74 
         3109.4           82.26 
         3109.7           92.56 
           3110           108.4 
         3110.3           127.5 
         3110.6             146 
         3110.9             159 
         3111.2           163.1 
         3111.5           156.8 
         3111.8             142 
         3112.1           122.4 
         3112.4           102.8 
         3112.7           86.83 
           3113           76.78 
         3113.3           73.72 
         3113.6           78.01 
         3113.9           89.58 
         3114.2           107.8 
         3114.5           130.6 
         3114.8           154.8 
         3115.1           175.5 
         3115.4           188.2 
         3115.7           189.6 
           3116           179.7 
         3116.3           162.6 
         3116.6           145.6 
         3116.9           136.4 
         3117.2           141.1 
         3117.5           161.2 
         3117.8           193.6 
         3118.1           231.2 
         3118.4           266.1 
         3118.7           291.2 
           3119           303.2 
         3119.3           302.7 
         3119.6           293.9 
         3119.9           281.5 
         3120.2           267.9 
         3120.5           252.1 
         3120.8           231.3 
         3121.1           203.6 
         3121.4             171 
         3121.7           139.6 
           3122           116.3 
         3122.3           105.7 
         3122.6           108.2 
         3122.9             119 
         3123.2           131.6 
         3123.5           140.3 
         3123.8           143.1 
         3124.1           141.6 
         3124.4             140 
         3124.7           141.8 
           3125           147.9 
         3125.3           155.5 
         3125.6           160.4 
         3125.9           159.6 
         3126.2           152.6 
         3126.5           141.6 
         3126.8           129.4 
         3127.1           117.7 
         3127.4           106.8 
         3127.7           96.53 
           3128           86.99 
         3128.3           78.57 
         3128.6           72.03 
         3128.9           68.33 
         3129.2           68.41 
         3129.5           73.14 
         3129.8            83.4 
         3130.1             100 
         3130.4           123.7 
         3130.7           153.3 
           3131           185.6 
         3131.3           214.6 
         3131.6           233.2 
         3131.9           236.8 
         3132.2           225.2 
         3132.5           203.2 
         3132.8           177.7 
         3133.1           154.9 
         3133.4             139 
         3133.7           132.2 
           3134           134.3 
         3134.3           143.3 
         3134.6           154.8 
         3134.9           162.8 
         3135.2           163.3 
         3135.5           155.7 
         3135.8           144.1 
         3136.1           134.8 
         3136.4           133.5 
         3136.7           143.5 
           3137           164.4 
         3137.3           191.8 
         3137.6           219.1 
         3137.9             239 
         3138.2           247.1 
         3138.5           243.6 
         3138.8           233.4 
         3139.1           223.1 
         3139.4           218.9 
         3139.7           223.9 
           3140           237.9 
         3140.3           257.5 
         3140.6           277.6 
         3140.9           293.6 
         3141.2           303.5 
         3141.5           308.3 
         3141.8           309.8 
         3142.1           308.1 
         3142.4           300.8 
         3142.7           285.4 
           3143           262.7 
         3143.3           237.2 
         3143.6           214.5 
         3143.9           197.7 
         3144.2           186.2 
         3144.5           176.4 
         3144.8           165.3 
         3145.1           151.9 
         3145.4             137 
         3145.7           122.2 
           3146           109.6 
         3146.3           101.8 
         3146.6           101.7 
         3146.9           112.7 
         3147.2           137.2 
         3147.5           176.1 
         3147.8           226.6 
         3148.1             282 
         3148.4           331.4 
         3148.7           363.2 
           3149           369.8 
         3149.3           351.1 
         3149.6           314.2 
         3149.9           270.4 
         3150.2           228.9 
         3150.5           194.4 
         3150.8           167.2 
         3151.1           145.9 
         3151.4           129.2 
         3151.7           117.5 
           3152           111.4 
         3152.3           111.1 
         3152.6           115.3 
         3152.9           122.1 
         3153.2           130.2 
         3153.5           139.8 
         3153.8           152.3 
         3154.1           168.6 
         3154.4           186.9 
         3154.7           202.5 
           3155           209.8 
         3155.3           206.3 
         3155.6           193.8 
         3155.9           177.8 
         3156.2           165.2 
         3156.5           160.3 
         3156.8           164.2 
         3157.1           174.7 
         3157.4           188.4 
         3157.7           202.2 
           3158           214.3 
         3158.3           224.2 
         3158.6           231.6 
         3158.9           235.5 
         3159.2           234.7 
         3159.5           229.2 
         3159.8           221.8 
         3160.1           217.8 
         3160.4             223 
         3160.7           239.8 
           3161           265.4 
         3161.3             294 
         3161.6           320.8 
         3161.9           345.2 
         3162.2           370.5 
         3162.5           399.1 
         3162.8           430.3 
         3163.1           459.6 
         3163.4           482.6 
         3163.7           497.5 
           3164           504.3 
         3164.3           503.5 
         3164.6           494.3 
         3164.9           476.8 
         3165.2           454.3 
         3165.5           434.2 
         3165.8           426.7 
         3166.1           441.6 
         3166.4           484.2 
         3166.7           551.5 
           3167             631 
         3167.3           702.7 
         3167.6           745.8 
         3167.9           747.5 
         3168.2           709.8 
         3168.5           649.4 
         3168.8           588.7 
         3169.1           543.5 
         3169.4           516.9 
         3169.7           500.2 
           3170           481.6 
         3170.3             455 
         3170.6             423 
         3170.9           394.7 
         3171.2           378.3 
         3171.5           376.4 
         3171.8             384 
         3172.1           392.1 
         3172.4           392.9 
         3172.7           385.1 
           3173           374.5 
         3173.3           371.6 
         3173.6           385.3 
         3173.9             419 
         3174.2           469.7 
         3174.5           529.5 
         3174.8           588.5 
         3175.1           636.8 
         3175.4           665.2 
         3175.7           666.9 
           3176           640.1 
         3176.3           589.9 
         3176.6           527.2 
         3176.9           466.8 
         3177.2           422.9 
         3177.5           404.3 
         3177.8           412.2 
         3178.1             438 
