# Granada HRES Library
# atmosphere = Phoenix  (atmosphere model used)
# feh = -5  (value for [Fe/H] for the model.)
# logg = 4.5 log(cm/s2) (value for Log(G) for the model.)
# teff = 4000 K (value for the effective temperature for the model. Temperatures are given in K)
#
# column 1: WAVELENGTH (ANGSTROM), Wavelength in Angstrom
# column 2: FLUX (ERG/CM2/S/A), Flux in erg/cm2/s/A
         3000.2            4778 
         3000.5            4538 
         3000.8            4355 
         3001.1            4227 
         3001.4            4120 
         3001.7            3994 
           3002            3829 
         3002.3            3668 
         3002.6            3600 
         3002.9            3725 
         3003.2            4111 
         3003.5            4759 
         3003.8            5606 
         3004.1            6544 
         3004.4            7450 
         3004.7            8218 
           3005            8778 
         3005.3            9088 
         3005.6            9128 
         3005.9            8898 
         3006.2            8424 
         3006.5            7772 
         3006.8            7039 
         3007.1            6344 
         3007.4            5791 
         3007.7            5453 
           3008            5357 
         3008.3            5490 
         3008.6            5816 
         3008.9            6298 
         3009.2            6909 
         3009.5            7618 
         3009.8            8357 
         3010.1            9013 
         3010.4            9453 
         3010.7            9587 
           3011            9425 
         3011.3            9081 
         3011.6            8732 
         3011.9            8527 
         3012.2            8526 
         3012.5            8677 
         3012.8            8867 
         3013.1            8992 
         3013.4            8993 
         3013.7            8866 
           3014            8648 
         3014.3            8390 
         3014.6            8138 
         3014.9            7931 
         3015.2            7784 
         3015.5            7701 
         3015.8            7669 
         3016.1            7671 
         3016.4            7674 
         3016.7            7643 
           3017            7552 
         3017.3            7397 
         3017.6            7195 
         3017.9            6968 
         3018.2            6717 
         3018.5            6428 
         3018.8            6080 
         3019.1            5653 
         3019.4            5152 
         3019.7            4600 
           3020            4058 
         3020.3            3611 
         3020.6            3359 
         3020.9            3373 
         3021.2            3674 
         3021.5            4219 
         3021.8            4902 
         3022.1            5593 
         3022.4            6161 
         3022.7            6507 
           3023            6587 
         3023.3            6427 
         3023.6            6119 
         3023.9            5785 
         3024.2            5523 
         3024.5            5366 
         3024.8            5284 
         3025.1            5233 
         3025.4            5204 
         3025.7            5243 
           3026            5424 
         3026.3            5786 
         3026.6            6305 
         3026.9            6893 
         3027.2            7452 
         3027.5            7926 
         3027.8            8315 
         3028.1            8662 
         3028.4            9008 
         3028.7            9365 
           3029            9699 
         3029.3            9950 
         3029.6           10060 
         3029.9           10010 
         3030.2            9804 
         3030.5            9536 
         3030.8            9321 
         3031.1            9288 
         3031.4            9528 
         3031.7           10030 
           3032           10670 
         3032.3           11210 
         3032.6           11450 
         3032.9           11290 
         3033.2           10770 
         3033.5           10070 
         3033.8            9431 
         3034.1            9043 
         3034.4            8979 
         3034.7            9171 
           3035            9453 
         3035.3            9632 
         3035.6            9566 
         3035.9            9208 
         3036.2            8606 
         3036.5            7883 
         3036.8            7194 
         3037.1            6690 
         3037.4            6482 
         3037.7            6602 
           3038            7000 
         3038.3            7563 
         3038.6            8158 
         3038.9            8670 
         3039.2            9024 
         3039.5            9181 
         3039.8            9121 
         3040.1            8853 
         3040.4            8415 
         3040.7            7877 
           3041            7341 
         3041.3            6924 
         3041.6            6740 
         3041.9            6861 
         3042.2            7292 
         3042.5            7950 
         3042.8            8697 
         3043.1            9383 
         3043.4            9903 
         3043.7           10220 
           3044           10360 
         3044.3           10380 
         3044.6           10360 
         3044.9           10360 
         3045.2           10360 
         3045.5           10320 
         3045.8           10150 
         3046.1            9764 
         3046.4            9143 
         3046.7            8357 
           3047            7543 
         3047.3            6862 
         3047.6            6449 
         3047.9            6372 
         3048.2            6627 
         3048.5            7146 
         3048.8            7807 
         3049.1            8456 
         3049.4            8944 
         3049.7            9178 
           3050            9160 
         3050.3            8991 
         3050.6            8824 
         3050.9            8790 
         3051.2            8945 
         3051.5            9258 
         3051.8            9633 
         3052.1            9950 
         3052.4           10100 
         3052.7           10010 
           3053            9684 
         3053.3            9175 
         3053.6            8611 
         3053.9            8133 
         3054.2            7856 
         3054.5            7824 
         3054.8            7999 
         3055.1            8277 
         3055.4            8529 
         3055.7            8645 
           3056            8567 
         3056.3            8296 
         3056.6            7884 
         3056.9            7415 
         3057.2            6970 
         3057.5            6606 
         3057.8            6342 
         3058.1            6163 
         3058.4            6061 
         3058.7            6063 
           3059            6232 
         3059.3            6631 
         3059.6            7277 
         3059.9            8112 
         3060.2            9022 
         3060.5            9863 
         3060.8           10520 
         3061.1           10930 
         3061.4           11090 
         3061.7           11030 
           3062           10780 
         3062.3           10330 
         3062.6            9636 
         3062.9            8713 
         3063.2            7648 
         3063.5            6590 
         3063.8            5711 
         3064.1            5128 
         3064.4            4863 
         3064.7            4847 
           3065            4953 
         3065.3            5065 
         3065.6            5110 
         3065.9            5082 
         3066.2            5018 
         3066.5            4971 
         3066.8            4979 
         3067.1            5056 
         3067.4            5208 
         3067.7            5432 
           3068            5723 
         3068.3            6058 
         3068.6            6389 
         3068.9            6660 
         3069.2            6823 
         3069.5            6875 
         3069.8            6874 
         3070.1            6922 
         3070.4            7113 
         3070.7            7495 
           3071            8041 
         3071.3            8684 
         3071.6            9363 
         3071.9           10050 
         3072.2           10740 
         3072.5           11390 
         3072.8           11910 
         3073.1           12220 
         3073.4           12270 
         3073.7           12110 
           3074           11830 
         3074.3           11520 
         3074.6           11250 
         3074.9           11080 
         3075.2           11060 
         3075.5           11260 
         3075.8           11720 
         3076.1           12360 
         3076.4           13010 
         3076.7           13500 
           3077           13690 
         3077.3           13550 
         3077.6           13180 
         3077.9           12710 
         3078.2           12280 
         3078.5           11940 
         3078.8           11670 
         3079.1           11360 
         3079.4           10940 
         3079.7           10350 
           3080            9609 
         3080.3            8794 
         3080.6            7973 
         3080.9            7209 
         3081.2            6560 
         3081.5            6076 
         3081.8            5789 
         3082.1            5699 
         3082.4            5763 
         3082.7            5918 
           3083            6111 
         3083.3            6331 
         3083.6            6591 
         3083.9            6903 
         3084.2            7253 
         3084.5            7618 
         3084.8            7977 
         3085.1            8317 
         3085.4            8614 
         3085.7            8834 
           3086            8963 
         3086.3            9044 
         3086.6            9184 
         3086.9            9509 
         3087.2           10090 
         3087.5           10900 
         3087.8           11780 
         3088.1           12480 
         3088.4           12760 
         3088.7           12490 
           3089           11690 
         3089.3           10540 
         3089.6            9293 
         3089.9            8169 
         3090.2            7290 
         3090.5            6663 
         3090.8            6220 
         3091.1            5872 
         3091.4            5542 
         3091.7            5198 
           3092            4868 
         3092.3            4631 
         3092.6            4591 
         3092.9            4824 
         3093.2            5329 
         3093.5            6019 
         3093.8            6749 
         3094.1            7372 
         3094.4            7783 
         3094.7            7940 
           3095            7863 
         3095.3            7613 
         3095.6            7289 
         3095.9            7015 
         3096.2            6924 
         3096.5            7115 
         3096.8            7608 
         3097.1            8309 
         3097.4            9018 
         3097.7            9499 
           3098            9571 
         3098.3            9184 
         3098.6            8438 
         3098.9            7537 
         3099.2            6711 
         3099.5            6145 
         3099.8            5921 
         3100.1            6010 
         3100.4            6288 
         3100.7            6610 
           3101            6871 
         3101.3            7221 
         3101.6            7494 
         3101.9            7953 
         3102.2            8622 
         3102.5            9445 
         3102.8           10320 
         3103.1           11140 
         3103.4           11810 
         3103.7           12240 
           3104           12370 
         3104.3           12140 
         3104.6           11580 
         3104.9           10770 
         3105.2            9869 
         3105.5            9038 
         3105.8            8424 
         3106.1            8100 
         3106.4            8063 
         3106.7            8262 
           3107            8621 
         3107.3            9055 
         3107.6            9478 
         3107.9            9813 
         3108.2           10030 
         3108.5           10140 
         3108.8           10230 
         3109.1           10400 
         3109.4           10740 
         3109.7           11270 
           3110           11940 
         3110.3           12630 
         3110.6           13180 
         3110.9           13450 
         3111.2           13400 
         3111.5           13040 
         3111.8           12520 
         3112.1           12010 
         3112.4           11650 
         3112.7           11580 
           3113           11900 
         3113.3           12700 
         3113.6           14000 
         3113.9           15770 
         3114.2           17860 
         3114.5           19970 
         3114.8           21750 
         3115.1           22790 
         3115.4           22840 
         3115.7           21840 
           3116           19970 
         3116.3           17680 
         3116.6           15450 
         3116.9           13770 
         3117.2           12910 
         3117.5           12920 
         3117.8           13600 
         3118.1           14620 
         3118.4           15610 
         3118.7           16380 
           3119           16870 
         3119.3           17250 
         3119.6           17710 
         3119.9           18350 
         3120.2           19010 
         3120.5           19340 
         3120.8           19020 
         3121.1           17840 
         3121.4           15990 
         3121.7           13900 
           3122           12080 
         3122.3           10930 
         3122.6           10530 
         3122.9           10770 
         3123.2           11380 
         3123.5           12090 
         3123.8           12730 
         3124.1           13230 
         3124.4           13620 
         3124.7           13980 
           3125           14390 
         3125.3           14890 
         3125.6           15510 
         3125.9           16230 
         3126.2           17020 
         3126.5           17720 
         3126.8           18060 
         3127.1           17820 
         3127.4           16930 
         3127.7           15570 
           3128           14040 
         3128.3           12680 
         3128.6           11690 
         3128.9           11150 
         3129.2           10970 
         3129.5           11100 
         3129.8           11530 
         3130.1           12270 
         3130.4           13370 
         3130.7           14780 
           3131           16280 
         3131.3           17570 
         3131.6           18290 
         3131.9           18210 
         3132.2           17340 
         3132.5           15910 
         3132.8           14260 
         3133.1           12760 
         3133.4           11700 
         3133.7           11250 
           3134           11470 
         3134.3           12250 
         3134.6           13310 
         3134.9           14260 
         3135.2           14780 
         3135.5           14770 
         3135.8           14380 
         3136.1           13960 
         3136.4           13890 
         3136.7           14460 
           3137           15750 
         3137.3           17610 
         3137.6           19720 
         3137.9           21560 
         3138.2           22680 
         3138.5           22870 
         3138.8           22150 
         3139.1           20830 
         3139.4           19270 
         3139.7           17840 
           3140           16800 
         3140.3           16170 
         3140.6           15910 
         3140.9           15870 
         3141.2           15920 
         3141.5           16000 
         3141.8           16100 
         3142.1           16160 
         3142.4           16080 
         3142.7           15750 
           3143           15200 
         3143.3           14560 
         3143.6           14020 
         3143.9           13720 
         3144.2           13640 
         3144.5           13710 
         3144.8           13810 
         3145.1           13860 
         3145.4           13810 
         3145.7           13600 
           3146           13220 
         3146.3           12770 
         3146.6           12490 
         3146.9           12680 
         3147.2           13590 
         3147.5           15340 
         3147.8           17720 
         3148.1           20280 
         3148.4           22450 
         3148.7           23670 
           3149           23640 
         3149.3           22450 
         3149.6           20470 
         3149.9           18230 
         3150.2           16220 
         3150.5           14690 
         3150.8           13730 
         3151.1           13290 
         3151.4           13260 
         3151.7           13510 
           3152           13910 
         3152.3           14310 
         3152.6           14590 
         3152.9           14640 
         3153.2           14490 
         3153.5           14250 
         3153.8           14140 
         3154.1           14350 
         3154.4           14930 
         3154.7           15750 
           3155           16550 
         3155.3           17150 
         3155.6           17520 
         3155.9           17820 
         3156.2           18310 
         3156.5           19200 
         3156.8           20610 
         3157.1           22480 
         3157.4           24600 
         3157.7           26740 
           3158           28660 
         3158.3           30230 
         3158.6           31370 
         3158.9           31920 
         3159.2           31680 
         3159.5           30460 
         3159.8           28350 
         3160.1           25730 
         3160.4           23250 
         3160.7           21520 
           3161           20930 
         3161.3           21570 
         3161.6           23270 
         3161.9           25750 
         3162.2           28610 
         3162.5           31320 
         3162.8           33340 
         3163.1           34200 
         3163.4           33790 
         3163.7           32430 
           3164           30740 
         3164.3           29300 
         3164.6           28490 
         3164.9           28470 
         3165.2           29340 
         3165.5           31220 
         3165.8           34170 
         3166.1           38110 
         3166.4           42570 
         3166.7           46660 
           3167           49400 
         3167.3           50090 
         3167.6           48670 
         3167.9           45820 
         3168.2           42880 
         3168.5           41230 
         3168.8           41770 
         3169.1           44470 
         3169.4           48360 
         3169.7           51930 
           3170           53880 
         3170.3           53650 
         3170.6           51640 
         3170.9           48940 
         3171.2           46690 
         3171.5           45520 
         3171.8           45320 
         3172.1           45430 
         3172.4           45220 
         3172.7           44600 
           3173           44090 
         3173.3           44560 
         3173.6           46540 
         3173.9           49930 
         3174.2           53980 
         3174.5           57800 
         3174.8           60850 
         3175.1           63050 
         3175.4           64480 
         3175.7           65130 
           3176           64720 
         3176.3           62930 
         3176.6           59700 
         3176.9           55470 
         3177.2           51140 
         3177.5           47640 
         3177.8           45540 
         3178.1           44630 
