# Granada HRES Library
# atmosphere = Phoenix  (atmosphere model used)
# feh = -5  (value for [Fe/H] for the model.)
# logg = 2.5 log(cm/s2) (value for Log(G) for the model.)
# teff = 3500 K (value for the effective temperature for the model. Temperatures are given in K)
#
# column 1: WAVELENGTH (ANGSTROM), Wavelength in Angstrom
# column 2: FLUX (ERG/CM2/S/A), Flux in erg/cm2/s/A
         3000.2           267.2 
         3000.5           237.6 
         3000.8           218.5 
         3001.1           208.2 
         3001.4           202.7 
         3001.7           197.7 
           3002           190.9 
         3002.3           184.2 
         3002.6           182.9 
         3002.9           193.7 
         3003.2           221.4 
         3003.5           267.2 
         3003.8           328.2 
         3004.1           397.7 
         3004.4           467.4 
         3004.7           528.8 
           3005           575.1 
         3005.3           601.6 
         3005.6           605.5 
         3005.9           587.2 
         3006.2           550.1 
         3006.5           500.9 
         3006.8           448.3 
         3007.1           400.8 
         3007.4           365.2 
         3007.7           345.9 
           3008           344.2 
         3008.3           359.6 
         3008.6             391 
         3008.9           437.8 
         3009.2           499.8 
         3009.5           574.6 
         3009.8           654.1 
         3010.1           723.5 
         3010.4           766.8 
         3010.7           774.3 
           3011           748.3 
         3011.3           702.7 
         3011.6           656.5 
         3011.9           624.6 
         3012.2           612.4 
         3012.5           615.6 
         3012.8           625.1 
         3013.1           632.8 
         3013.4             635 
         3013.7           631.2 
           3014           623.5 
         3014.3           614.1 
         3014.6           605.7 
         3014.9           600.5 
         3015.2           599.7 
         3015.5           602.6 
         3015.8           606.3 
         3016.1           607.4 
         3016.4           602.5 
         3016.7           589.7 
           3017           569.3 
         3017.3           543.7 
         3017.6           516.5 
         3017.9           489.8 
         3018.2           462.4 
         3018.5           431.9 
         3018.8           395.3 
         3019.1           352.6 
         3019.4           305.7 
         3019.7           258.3 
           3020           215.7 
         3020.3           183.3 
         3020.6             167 
         3020.9           170.9 
         3021.2             196 
         3021.5           239.7 
         3021.8           295.3 
         3022.1           353.9 
         3022.4           405.4 
         3022.7             441 
           3023             455 
         3023.3           446.8 
         3023.6           421.4 
         3023.9           387.8 
         3024.2           355.4 
         3024.5           329.8 
         3024.8           312.3 
         3025.1           301.4 
         3025.4           296.2 
         3025.7             298 
           3026           308.3 
         3026.3           326.9 
         3026.6             350 
         3026.9           371.9 
         3027.2           388.6 
         3027.5           400.9 
         3027.8           414.3 
         3028.1           436.2 
         3028.4           471.9 
         3028.7           521.1 
           3029           577.1 
         3029.3           629.6 
         3029.6           668.2 
         3029.9           687.9 
         3030.2           691.1 
         3030.5           687.2 
         3030.8           689.8 
         3031.1           710.9 
         3031.4           755.3 
         3031.7           815.7 
           3032           873.4 
         3032.3           905.4 
         3032.6           894.7 
         3032.9           839.5 
         3033.2           753.9 
         3033.5           661.9 
         3033.8           588.4 
         3034.1             549 
         3034.4           546.8 
         3034.7           572.5 
           3035           608.7 
         3035.3           637.1 
         3035.6           644.6 
         3035.9           625.9 
         3036.2           584.4 
         3036.5           530.6 
         3036.8           479.1 
         3037.1           444.6 
         3037.4           437.8 
         3037.7           461.2 
           3038           508.3 
         3038.3             567 
         3038.6           624.5 
         3038.9           672.9 
         3039.2             709 
         3039.5           732.1 
         3039.8             740 
         3040.1           729.3 
         3040.4           698.7 
         3040.7           651.9 
           3041           599.9 
         3041.3           557.4 
         3041.6           537.9 
         3041.9             548 
         3042.2           584.9 
         3042.5             637 
         3042.8           689.2 
         3043.1           729.2 
         3043.4           751.5 
         3043.7           758.1 
           3044           756.6 
         3044.3           755.5 
         3044.6           761.5 
         3044.9             777 
         3045.2           798.4 
         3045.5           816.2 
         3045.8           817.5 
         3046.1             791 
         3046.4           733.2 
         3046.7           651.1 
           3047           560.2 
         3047.3           479.7 
         3047.6           425.8 
         3047.9           407.5 
         3048.2           426.2 
         3048.5           475.9 
         3048.8           544.2 
         3049.1           614.1 
         3049.4           667.8 
         3049.7           692.3 
           3050           685.1 
         3050.3           654.9 
         3050.6           616.9 
         3050.9           585.7 
         3051.2           569.5 
         3051.5           568.5 
         3051.8           577.5 
         3052.1           588.6 
         3052.4           593.6 
         3052.7           586.3 
           3053           564.6 
         3053.3           531.9 
         3053.6           496.1 
         3053.9             466 
         3054.2           448.8 
         3054.5           446.3 
         3054.8           455.1 
         3055.1             468 
         3055.4           477.5 
         3055.7           478.9 
           3056           471.9 
         3056.3           459.8 
         3056.6           447.8 
         3056.9           439.9 
         3057.2             438 
         3057.5           440.3 
         3057.8           442.9 
         3058.1           441.8 
         3058.4           436.6 
         3058.7           432.5 
           3059           438.5 
         3059.3           463.2 
         3059.6           509.9 
         3059.9           574.5 
         3060.2           647.6 
         3060.5           717.8 
         3060.8           775.5 
         3061.1           815.3 
         3061.4           835.4 
         3061.7           835.4 
           3062           813.7 
         3062.3           767.2 
         3062.6           694.9 
         3062.9           601.9 
         3063.2           500.1 
         3063.5           405.9 
         3063.8           333.6 
         3064.1           290.1 
         3064.4             273 
         3064.7             274 
           3065           283.3 
         3065.3           294.3 
         3065.6             306 
         3065.9           320.5 
         3066.2           340.4 
         3066.5           365.4 
         3066.8             392 
         3067.1             416 
         3067.4           435.3 
         3067.7             451 
           3068           465.7 
         3068.3             480 
         3068.6           490.5 
         3068.9           491.8 
         3069.2           479.6 
         3069.5           455.4 
         3069.8           427.4 
         3070.1           407.9 
         3070.4           408.5 
         3070.7           434.7 
           3071             484 
         3071.3           548.8 
         3071.6             620 
         3071.9           690.9 
         3072.2           757.4 
         3072.5           816.4 
         3072.8           864.5 
         3073.1           898.5 
         3073.4             918 
         3073.7           924.8 
           3074           921.7 
         3074.3           911.4 
         3074.6           897.8 
         3074.9           888.4 
         3075.2           893.9 
         3075.5           923.9 
         3075.8           979.9 
         3076.1            1051 
         3076.4            1115 
         3076.7            1151 
           3077            1150 
         3077.3            1115 
         3077.6            1061 
         3077.9            1005 
         3078.2           957.7 
         3078.5           921.3 
         3078.8           888.3 
         3079.1           848.7 
         3079.4           795.9 
         3079.7           729.2 
           3080           653.3 
         3080.3           575.2 
         3080.6           501.2 
         3080.9           436.6 
         3081.2           386.2 
         3081.5           353.6 
         3081.8           340.6 
         3082.1             345 
         3082.4           360.2 
         3082.7           377.8 
           3083           391.8 
         3083.3           401.9 
         3083.6           412.8 
         3083.9           430.6 
         3084.2           459.9 
         3084.5             501 
         3084.8           551.5 
         3085.1           605.6 
         3085.4           655.7 
         3085.7           694.9 
           3086           721.9 
         3086.3           744.6 
         3086.6           778.5 
         3086.9           839.5 
         3087.2           935.1 
         3087.5            1057 
         3087.8            1183 
         3088.1            1277 
         3088.4            1310 
         3088.7            1266 
           3089            1152 
         3089.3           990.9 
         3089.6           817.4 
         3089.9           660.1 
         3090.2           535.9 
         3090.5           448.2 
         3090.8           390.9 
         3091.1             354 
         3091.4           328.4 
         3091.7           308.8 
           3092           294.9 
         3092.3           291.1 
         3092.6             304 
         3092.9           338.8 
         3093.2           395.1 
         3093.5           465.9 
         3093.8           539.8 
         3094.1           604.5 
         3094.4           651.1 
         3094.7           674.5 
           3095           673.9 
         3095.3           652.9 
         3095.6             621 
         3095.9           594.4 
         3096.2           593.7 
         3096.5           636.1 
         3096.8           726.5 
         3097.1             850 
         3097.4           973.7 
         3097.7            1058 
           3098            1071 
         3098.3            1006 
         3098.6           881.1 
         3098.9           731.2 
         3099.2           594.7 
         3099.5           499.1 
         3099.8           454.1 
         3100.1           452.1 
         3100.4           474.8 
         3100.7           503.2 
           3101           526.1 
         3101.3           570.1 
         3101.6           617.5 
         3101.9           694.4 
         3102.2           798.3 
         3102.5           915.7 
         3102.8            1029 
         3103.1            1124 
         3103.4            1191 
         3103.7            1230 
           3104            1238 
         3104.3            1211 
         3104.6            1146 
         3104.9            1043 
         3105.2           916.3 
         3105.5           786.1 
         3105.8           672.7 
         3106.1           590.7 
         3106.4           547.5 
         3106.7           543.1 
           3107           571.7 
         3107.3           622.5 
         3107.6           680.3 
         3107.9             729 
         3108.2           757.8 
         3108.5           764.7 
         3108.8           758.3 
         3109.1           753.7 
         3109.4             767 
         3109.7           809.2 
           3110           881.6 
         3110.3           974.2 
         3110.6            1067 
         3110.9            1135 
         3111.2            1156 
         3111.5            1122 
         3111.8            1042 
         3112.1             936 
         3112.4           831.2 
         3112.7           749.7 
           3113           706.6 
         3113.3           709.2 
         3113.6           759.3 
         3113.9           854.6 
         3114.2           987.8 
         3114.5            1145 
         3114.8            1303 
         3115.1            1434 
         3115.4            1508 
         3115.7            1509 
           3116            1436 
         3116.3            1318 
         3116.6            1199 
         3116.9            1125 
         3117.2            1130 
         3117.5            1218 
         3117.8            1363 
         3118.1            1528 
         3118.4            1668 
         3118.7            1754 
           3119            1782 
         3119.3            1765 
         3119.6            1732 
         3119.9            1704 
         3120.2            1684 
         3120.5            1653 
         3120.8            1580 
         3121.1            1450 
         3121.4            1272 
         3121.7            1083 
           3122           935.3 
         3122.3           863.9 
         3122.6           875.4 
         3122.9           945.9 
         3123.2            1035 
         3123.5            1105 
         3123.8            1139 
         3124.1            1142 
         3124.4            1135 
         3124.7            1140 
           3125            1165 
         3125.3            1205 
         3125.6            1244 
         3125.9            1270 
         3126.2            1280 
         3126.5            1276 
         3126.8            1257 
         3127.1            1217 
         3127.4            1151 
         3127.7            1063 
           3128           963.5 
         3128.3             869 
         3128.6           792.9 
         3128.9           743.5 
         3129.2           724.3 
         3129.5           736.1 
         3129.8           780.4 
         3130.1           861.8 
         3130.4             985 
         3130.7            1148 
           3131            1333 
         3131.3            1505 
         3131.6            1624 
         3131.9            1658 
         3132.2            1605 
         3132.5            1488 
         3132.8            1348 
         3133.1            1215 
         3133.4            1117 
         3133.7            1065 
           3134            1066 
         3134.3            1110 
         3134.6            1173 
         3134.9            1220 
         3135.2            1227 
         3135.5            1189 
         3135.8            1126 
         3136.1            1074 
         3136.4            1065 
         3136.7            1116 
           3137            1226 
         3137.3            1374 
         3137.6            1526 
         3137.9            1646 
         3138.2            1706 
         3138.5            1703 
         3138.8            1654 
         3139.1            1590 
         3139.4            1544 
         3139.7            1536 
           3140            1570 
         3140.3            1635 
         3140.6            1707 
         3140.9            1765 
         3141.2            1799 
         3141.5            1814 
         3141.8            1819 
         3142.1            1816 
         3142.4            1791 
         3142.7            1727 
           3143            1626 
         3143.3            1507 
         3143.6            1396 
         3143.9            1313 
         3144.2            1256 
         3144.5            1211 
         3144.8            1163 
         3145.1            1106 
         3145.4            1041 
         3145.7           972.1 
           3146           909.2 
         3146.3           865.4 
         3146.6           858.1 
         3146.9           905.2 
         3147.2            1020 
         3147.5            1202 
         3147.8            1440 
         3148.1            1701 
         3148.4            1940 
         3148.7            2104 
           3149            2155 
         3149.3            2093 
         3149.6            1944 
         3149.9            1756 
         3150.2            1572 
         3150.5            1410 
         3150.8            1277 
         3151.1            1166 
         3151.4            1078 
         3151.7            1010 
           3152           968.6 
         3152.3           951.9 
         3152.6           954.4 
         3152.9             969 
         3153.2           994.1 
         3153.5            1036 
         3153.8            1106 
         3154.1            1205 
         3154.4            1323 
         3154.7            1428 
           3155            1487 
         3155.3            1487 
         3155.6            1439 
         3155.9            1376 
         3156.2            1335 
         3156.5            1337 
         3156.8            1385 
         3157.1            1465 
         3157.4            1560 
         3157.7            1656 
           3158            1749 
         3158.3            1840 
         3158.6            1924 
         3158.9            1988 
         3159.2            2009 
         3159.5            1971 
         3159.8            1880 
         3160.1            1767 
         3160.4            1680 
         3160.7            1655 
           3161            1704 
         3161.3            1820 
         3161.6            1992 
         3161.9            2218 
         3162.2            2497 
         3162.5            2814 
         3162.8            3119 
         3163.1            3353 
         3163.4            3471 
         3163.7            3473 
           3164            3392 
         3164.3            3264 
         3164.6            3115 
         3164.9            2960 
         3165.2            2815 
         3165.5            2706 
         3165.8            2674 
         3166.1            2752 
         3166.4            2952 
         3166.7            3249 
           3167            3579 
         3167.3            3857 
         3167.6            3998 
         3167.9            3968 
         3168.2            3794 
         3168.5            3564 
         3168.8            3373 
         3169.1            3277 
         3169.4            3264 
         3169.7            3271 
           3170            3231 
         3170.3            3118 
         3170.6            2961 
         3170.9            2821 
         3171.2            2760 
         3171.5            2796 
         3171.8            2900 
         3172.1            3013 
         3172.4            3088 
         3172.7            3128 
           3173            3179 
         3173.3            3309 
         3173.6            3555 
         3173.9            3900 
         3174.2            4281 
         3174.5            4626 
         3174.8            4886 
         3175.1            5038 
         3175.4            5069 
         3175.7            4965 
           3176            4716 
         3176.3            4348 
         3176.6            3916 
         3176.9            3505 
         3177.2            3192 
         3177.5            3024 
         3177.8            2998 
         3178.1            3061 
