# Granada HRES Library
# atmosphere = Spectrum  (atmosphere model used)
# feh = 3  (value for [Fe/H] for the model.)
# logg = 5 log(cm/s2) (value for Log(G) for the model.)
# teff = 4750 K (value for the effective temperature for the model. Temperatures are given in K)
#
# column 1: WAVELENGTH (ANGSTROM), Wavelength in Angstrom
# column 2: FLUX (ERG/CM2/S/A), Flux in erg/cm2/s/A
         3000.2           24850 
         3000.5           25510 
         3000.8           26330 
         3001.1           27270 
         3001.4           28290 
         3001.7           29390 
           3002           30610 
         3002.3           32020 
         3002.6           33750 
         3002.9           35930 
         3003.2           38650 
         3003.5           41930 
         3003.8           45650 
         3004.1           49570 
         3004.4           53390 
         3004.7           56740 
           3005           59280 
         3005.3           60710 
         3005.6           60860 
         3005.9           59670 
         3006.2           57280 
         3006.5           53990 
         3006.8           50250 
         3007.1           46560 
         3007.4           43440 
         3007.7           41310 
           3008           40500 
         3008.3           41190 
         3008.6           43440 
         3008.9           47130 
         3009.2           52010 
         3009.5           57640 
         3009.8           63410 
         3010.1           68680 
         3010.4           72860 
         3010.7           75590 
           3011           76830 
         3011.3           76840 
         3011.6           76110 
         3011.9           75120 
         3012.2           74180 
         3012.5           73360 
         3012.8           72550 
         3013.1           71540 
         3013.4           70150 
         3013.7           68360 
           3014           66320 
         3014.3           64260 
         3014.6           62400 
         3014.9           60930 
         3015.2           59830 
         3015.5           58970 
         3015.8           58130 
         3016.1           57060 
         3016.4           55560 
         3016.7           53570 
           3017           51100 
         3017.3           48250 
         3017.6           45180 
         3017.9           41960 
         3018.2           38680 
         3018.5           35360 
         3018.8           32070 
         3019.1           28850 
         3019.4           25830 
         3019.7           23160 
           3020           21080 
         3020.3           19850 
         3020.6           19670 
         3020.9           20720 
         3021.2           22990 
         3021.5           26300 
         3021.8           30320 
         3022.1           34590 
         3022.4           38630 
         3022.7           42030 
           3023           44490 
         3023.3           45880 
         3023.6           46250 
         3023.9           45740 
         3024.2           44620 
         3024.5           43180 
         3024.8           41820 
         3025.1           40950 
         3025.4           41000 
         3025.7           42430 
           3026           45550 
         3026.3           50480 
         3026.6           57060 
         3026.9           64880 
         3027.2           73260 
         3027.5           81380 
         3027.8           88400 
         3028.1           93570 
         3028.4           96370 
         3028.7           96630 
           3029           94520 
         3029.3           90560 
         3029.6           85590 
         3029.9           80460 
         3030.2           76090 
         3030.5           73250 
         3030.8           72600 
         3031.1           74530 
         3031.4           79160 
         3031.7           86230 
           3032           95090 
         3032.3          104800 
         3032.6          114200 
         3032.9          122300 
         3033.2          128300 
         3033.5          131800 
         3033.8          132800 
         3034.1          131700 
         3034.4          128900 
         3034.7          124700 
           3035          119200 
         3035.3          112300 
         3035.6          104000 
         3035.9           94500 
         3036.2           84260 
         3036.5           74160 
         3036.8           65230 
         3037.1           58400 
         3037.4           54280 
         3037.7           53030 
           3038           54400 
         3038.3           57690 
         3038.6           61960 
         3038.9           66300 
         3039.2           69910 
         3039.5           72320 
         3039.8           73330 
         3040.1           73050 
         3040.4           71790 
         3040.7           70040 
           3041           68310 
         3041.3           67140 
         3041.6           67030 
         3041.9           68350 
         3042.2           71240 
         3042.5           75570 
         3042.8           80920 
         3043.1           86590 
         3043.4           91780 
         3043.7           95740 
           3044           97970 
         3044.3           98290 
         3044.6           96820 
         3044.9           93870 
         3045.2           89810 
         3045.5           84970 
         3045.8           79590 
         3046.1           73840 
         3046.4           68040 
         3046.7           62630 
           3047           58140 
         3047.3           55170 
         3047.6           54130 
         3047.9           55130 
         3048.2           57940 
         3048.5           62010 
         3048.8           66650 
         3049.1           71170 
         3049.4           75260 
         3049.7           79080 
           3050           83220 
         3050.3           88570 
         3050.6           95910 
         3050.9          105600 
         3051.2          117000 
         3051.5          128900 
         3051.8          139200 
         3052.1          145800 
         3052.4          147200 
         3052.7          142800 
           3053          133400 
         3053.3          120800 
         3053.6          107300 
         3053.9           94820 
         3054.2           84970 
         3054.5           78240 
         3054.8           74350 
         3055.1           72410 
         3055.4           71380 
         3055.7           70290 
           3056           68470 
         3056.3           65610 
         3056.6           61790 
         3056.9           57380 
         3057.2           52870 
         3057.5           48760 
         3057.8           45520 
         3058.1           43460 
         3058.4           42800 
         3058.7           43740 
           3059           46300 
         3059.3           50560 
         3059.6           56490 
         3059.9           64050 
         3060.2           73140 
         3060.5           83540 
         3060.8           94870 
         3061.1          106600 
         3061.4          117900 
         3061.7          127700 
           3062          134700 
         3062.3          138000 
         3062.6          136900 
         3062.9          131700 
         3063.2          123400 
         3063.5          113500 
         3063.8          104000 
         3064.1           96290 
         3064.4           91000 
         3064.7           87900 
           3065           86020 
         3065.3           84200 
         3065.6           81450 
         3065.9           77420 
         3066.2           72440 
         3066.5           67430 
         3066.8           63580 
         3067.1           62130 
         3067.4           63750 
         3067.7           68850 
           3068           77210 
         3068.3           88090 
         3068.6          100600 
         3068.9          113900 
         3069.2          127000 
         3069.5          139700 
         3069.8          151700 
         3070.1          163100 
         3070.4          173800 
         3070.7          183400 
           3071          191200 
         3071.3          196700 
         3071.6          199600 
         3071.9          199800 
         3072.2          197700 
         3072.5          193900 
         3072.8          188900 
         3073.1          182600 
         3073.4          175300 
         3073.7          166800 
           3074          157400 
         3074.3          147700 
         3074.6          138600 
         3074.9          131600 
         3075.2          128100 
         3075.5          129000 
         3075.8          134600 
         3076.1          144400 
         3076.4          156600 
         3076.7          169000 
           3077          179300 
         3077.3          185700 
         3077.6          187600 
         3077.9          185200 
         3078.2          179700 
         3078.5          172500 
         3078.8          164600 
         3079.1          156700 
         3079.4          148700 
         3079.7          140300 
           3080          131100 
         3080.3          120900 
         3080.6          110200 
         3080.9           99340 
         3081.2           89190 
         3081.5           80400 
         3081.8           73790 
         3082.1           69800 
         3082.4           68530 
         3082.7           70290 
           3083           75270 
         3083.3           83860 
         3083.6           96410 
         3083.9          113200 
         3084.2          134000 
         3084.5          157800 
         3084.8          183100 
         3085.1          207000 
         3085.4          226700 
         3085.7          239600 
           3086          244200 
         3086.3          240400 
         3086.6          229800 
         3086.9          214900 
         3087.2          198500 
         3087.5          182800 
         3087.8          169100 
         3088.1          157500 
         3088.4          147200 
         3088.7          137100 
           3089          126500 
         3089.3          115100 
         3089.6          103100 
         3089.9           91360 
         3090.2           80630 
         3090.5           71420 
         3090.8           63930 
         3091.1           58140 
         3091.4           53890 
         3091.7           50930 
           3092           49260 
         3092.3           48840 
         3092.6           49810 
         3092.9           52210 
         3093.2           55950 
         3093.5           60650 
         3093.8           65780 
         3094.1           70740 
         3094.4           74970 
         3094.7           78060 
           3095           79920 
         3095.3           80630 
         3095.6           80540 
         3095.9           80110 
         3096.2           79860 
         3096.5           80160 
         3096.8           81120 
         3097.1           82490 
         3097.4           83700 
         3097.7           84010 
           3098           82760 
         3098.3           79590 
         3098.6           74580 
         3098.9           68250 
         3099.2           61400 
         3099.5           54850 
         3099.8           49450 
         3100.1           45780 
         3100.4           44310 
         3100.7           45390 
           3101           49410 
         3101.3           56680 
         3101.6           67470 
         3101.9           81880 
         3102.2           99680 
         3102.5          120200 
         3102.8          142200 
         3103.1          164200 
         3103.4          184600 
         3103.7          201300 
           3104          212800 
         3104.3          218400 
         3104.6          217900 
         3104.9          212400 
         3105.2          204100 
         3105.5          195800 
         3105.8          190100 
         3106.1          189100 
         3106.4          193700 
         3106.7          203900 
           3107          218300 
         3107.3          235400 
         3107.6          253100 
         3107.9          269300 
         3108.2          282200 
         3108.5          290600 
         3108.8          294500 
         3109.1          294700 
         3109.4          293100 
         3109.7          292300 
           3110          294500 
         3110.3          301100 
         3110.6          311800 
         3110.9          324300 
         3111.2          335500 
         3111.5          341900 
         3111.8          341000 
         3112.1          331800 
         3112.4          315600 
         3112.7          294900 
           3113          273600 
         3113.3          255700 
         3113.6          244700 
         3113.9          242700 
         3114.2          250400 
         3114.5          265900 
         3114.8          285400 
         3115.1          304000 
         3115.4          316800 
         3115.7          320200 
           3116          312900 
         3116.3          296100 
         3116.6          273200 
         3116.9          248700 
         3117.2          226400 
         3117.5          209300 
         3117.8          198200 
         3118.1          193100 
         3118.4          192900 
         3118.7          196700 
           3119          204000 
         3119.3          214500 
         3119.6          228000 
         3119.9          243700 
         3120.2          259400 
         3120.5          272200 
         3120.8          278800 
         3121.1          276700 
         3121.4          265600 
         3121.7          247200 
           3122          225000 
         3122.3          203600 
         3122.6          186400 
         3122.9          175900 
         3123.2          172000 
         3123.5          173500 
         3123.8          177600 
         3124.1          181700 
         3124.4          183900 
         3124.7          183300 
           3125          180400 
         3125.3          176800 
         3125.6          173800 
         3125.9          172800 
         3126.2          173800 
         3126.5          176300 
         3126.8          179100 
         3127.1          180700 
         3127.4          180400 
         3127.7          178000 
           3128          174400 
         3128.3          170700 
         3128.6          168500 
         3128.9          168500 
         3129.2          171000 
         3129.5          175400 
         3129.8          181000 
         3130.1          186600 
         3130.4          191600 
         3130.7          195300 
           3131          196900 
         3131.3          195900 
         3131.6          192200 
         3131.9          185700 
         3132.2          177000 
         3132.5          167100 
         3132.8          157800 
         3133.1          150900 
         3133.4          148200 
         3133.7          151400 
           3134          160800 
         3134.3          176300 
         3134.6          196200 
         3134.9          218300 
         3135.2          240000 
         3135.5          259400 
         3135.8          275500 
         3136.1          288000 
         3136.4          297300 
         3136.7          303300 
           3137          305900 
         3137.3          304800 
         3137.6          300000 
         3137.9          292700 
         3138.2          284500 
         3138.5          277700 
         3138.8          274000 
         3139.1          274300 
         3139.4          278400 
         3139.7          285100 
           3140          292500 
         3140.3          298800 
         3140.6          302200 
         3140.9          301100 
         3141.2          294600 
         3141.5          282800 
         3141.8          266300 
         3142.1          246300 
         3142.4          224400 
         3142.7          202600 
           3143          182400 
         3143.3          165200 
         3143.6          152000 
         3143.9          143500 
         3144.2          139600 
         3144.5          140200 
         3144.8          144600 
         3145.1          151500 
         3145.4          159700 
         3145.7          168100 
           3146          175600 
         3146.3          182300 
         3146.6          189500 
         3146.9          198900 
         3147.2          212300 
         3147.5          230500 
         3147.8          253200 
         3148.1          277900 
         3148.4          301200 
         3148.7          319800 
           3149          331100 
         3149.3          334800 
         3149.6          332400 
         3149.9          326400 
         3150.2          319700 
         3150.5          313900 
         3150.8          309300 
         3151.1          305800 
         3151.4          302300 
         3151.7          298600 
           3152          295000 
         3152.3          292500 
         3152.6          292100 
         3152.9          294400 
         3153.2          299000 
         3153.5          305000 
         3153.8          311100 
         3154.1          316000 
         3154.4          318500 
         3154.7          317900 
           3155          313200 
         3155.3          303900 
         3155.6          289300 
         3155.9          270200 
         3156.2          247400 
         3156.5          223000 
         3156.8          199100 
         3157.1          177800 
         3157.4          160600 
         3157.7          148000 
           3158          139800 
         3158.3          135300 
         3158.6          133100 
         3158.9          132100 
         3159.2          131500 
         3159.5          130100 
         3159.8          128300 
         3160.1          126100 
         3160.4          124400 
         3160.7          124500 
           3161          127500 
         3161.3          134400 
         3161.6          145200 
         3161.9          159700 
         3162.2          176100 
         3162.5          192600 
         3162.8          206700 
         3163.1          216700 
         3163.4          221200 
         3163.7          220300 
           3164          215300 
         3164.3          208300 
         3164.6          202300 
         3164.9          199500 
         3165.2          201900 
         3165.5          210300 
         3165.8          224100 
         3166.1          241600 
         3166.4          260100 
         3166.7          276600 
           3167          287900 
         3167.3          292600 
         3167.6          290200 
         3167.9          282900 
         3168.2          273800 
         3168.5          267100 
         3168.8          266500 
         3169.1          273800 
         3169.4          288600 
         3169.7          308400 
           3170          329300 
         3170.3          347400 
         3170.6          360200 
         3170.9          366800 
         3171.2          368700 
         3171.5          367800 
         3171.8          365900 
         3172.1          364500 
         3172.4          363400 
         3172.7          362000 
           3173          359800 
         3173.3          356300 
         3173.6          352500 
         3173.9          350200 
         3174.2          352200 
         3174.5          361800 
         3174.8          381500 
         3175.1          412400 
         3175.4          452600 
         3175.7          496800 
           3176          537400 
         3176.3          565800 
         3176.6          575100 
         3176.9          562300 
         3177.2          528900 
         3177.5          480300 
         3177.8          424300 
         3178.1          368300 
