# Granada HRES Library
# atmosphere = Spectrum  (atmosphere model used)
# feh = -5  (value for [Fe/H] for the model.)
# logg = 4 log(cm/s2) (value for Log(G) for the model.)
# teff = 5500 K (value for the effective temperature for the model. Temperatures are given in K)
#
# column 1: WAVELENGTH (ANGSTROM), Wavelength in Angstrom
# column 2: FLUX (ERG/CM2/S/A), Flux in erg/cm2/s/A
         3000.2          883400 
         3000.5          897000 
         3000.8          914000 
         3001.1          933600 
         3001.4          954200 
         3001.7          978200 
           3002         1.01e+6 
         3002.3        1.057e+6 
         3002.6        1.132e+6 
         3002.9        1.244e+6 
         3003.2          1.4e+6 
         3003.5        1.599e+6 
         3003.8        1.833e+6 
         3004.1        2.082e+6 
         3004.4        2.324e+6 
         3004.7        2.534e+6 
           3005         2.69e+6 
         3005.3        2.775e+6 
         3005.6        2.783e+6 
         3005.9        2.714e+6 
         3006.2         2.58e+6 
         3006.5        2.402e+6 
         3006.8        2.202e+6 
         3007.1        2.009e+6 
         3007.4        1.846e+6 
         3007.7        1.733e+6 
           3008        1.681e+6 
         3008.3        1.697e+6 
         3008.6        1.778e+6 
         3008.9        1.916e+6 
         3009.2        2.099e+6 
         3009.5        2.305e+6 
         3009.8        2.511e+6 
         3010.1         2.69e+6 
         3010.4        2.821e+6 
         3010.7        2.892e+6 
           3011        2.902e+6 
         3011.3        2.866e+6 
         3011.6        2.805e+6 
         3011.9        2.744e+6 
         3012.2        2.698e+6 
         3012.5        2.672e+6 
         3012.8        2.664e+6 
         3013.1        2.665e+6 
         3013.4        2.664e+6 
         3013.7        2.657e+6 
           3014         2.64e+6 
         3014.3        2.616e+6 
         3014.6        2.591e+6 
         3014.9        2.565e+6 
         3015.2         2.54e+6 
         3015.5        2.514e+6 
         3015.8        2.482e+6 
         3016.1        2.439e+6 
         3016.4         2.38e+6 
         3016.7        2.301e+6 
           3017        2.202e+6 
         3017.3        2.085e+6 
         3017.6        1.951e+6 
         3017.9        1.804e+6 
         3018.2        1.645e+6 
         3018.5        1.479e+6 
         3018.8        1.309e+6 
         3019.1        1.142e+6 
         3019.4          986900 
         3019.7          854400 
           3020          756700 
         3020.3          705100 
         3020.6          710600 
         3020.9          780500 
         3021.2          915400 
         3021.5        1.108e+6 
         3021.8        1.343e+6 
         3022.1        1.598e+6 
         3022.4        1.847e+6 
         3022.7        2.066e+6 
           3023        2.234e+6 
         3023.3        2.338e+6 
         3023.6        2.376e+6 
         3023.9        2.352e+6 
         3024.2        2.278e+6 
         3024.5        2.171e+6 
         3024.8        2.052e+6 
         3025.1        1.947e+6 
         3025.4         1.88e+6 
         3025.7        1.876e+6 
           3026         1.95e+6 
         3026.3        2.103e+6 
         3026.6        2.321e+6 
         3026.9        2.577e+6 
         3027.2        2.837e+6 
         3027.5        3.065e+6 
         3027.8        3.237e+6 
         3028.1        3.335e+6 
         3028.4        3.356e+6 
         3028.7        3.308e+6 
           3029        3.204e+6 
         3029.3        3.063e+6 
         3029.6        2.907e+6 
         3029.9        2.753e+6 
         3030.2        2.617e+6 
         3030.5        2.512e+6 
         3030.8        2.449e+6 
         3031.1        2.435e+6 
         3031.4         2.47e+6 
         3031.7        2.551e+6 
           3032        2.666e+6 
         3032.3        2.799e+6 
         3032.6        2.935e+6 
         3032.9        3.061e+6 
         3033.2        3.172e+6 
         3033.5        3.267e+6 
         3033.8        3.349e+6 
         3034.1        3.419e+6 
         3034.4        3.472e+6 
         3034.7        3.497e+6 
           3035        3.479e+6 
         3035.3        3.403e+6 
         3035.6        3.259e+6 
         3035.9        3.047e+6 
         3036.2        2.781e+6 
         3036.5         2.49e+6 
         3036.8         2.21e+6 
         3037.1        1.979e+6 
         3037.4        1.827e+6 
         3037.7         1.77e+6 
           3038        1.807e+6 
         3038.3         1.92e+6 
         3038.6        2.081e+6 
         3038.9        2.253e+6 
         3039.2        2.407e+6 
         3039.5        2.517e+6 
         3039.8        2.571e+6 
         3040.1        2.567e+6 
         3040.4        2.514e+6 
         3040.7        2.431e+6 
           3041        2.338e+6 
         3041.3        2.256e+6 
         3041.6        2.206e+6 
         3041.9        2.203e+6 
         3042.2        2.253e+6 
         3042.5        2.351e+6 
         3042.8        2.485e+6 
         3043.1        2.634e+6 
         3043.4        2.777e+6 
         3043.7        2.898e+6 
           3044        2.986e+6 
         3044.3        3.037e+6 
         3044.6        3.052e+6 
         3044.9        3.029e+6 
         3045.2        2.968e+6 
         3045.5        2.868e+6 
         3045.8        2.728e+6 
         3046.1        2.554e+6 
         3046.4        2.359e+6 
         3046.7        2.168e+6 
           3047        2.007e+6 
         3047.3        1.905e+6 
         3047.6         1.88e+6 
         3047.9        1.934e+6 
         3048.2        2.055e+6 
         3048.5        2.214e+6 
         3048.8        2.378e+6 
         3049.1         2.52e+6 
         3049.4        2.621e+6 
         3049.7        2.682e+6 
           3050         2.72e+6 
         3050.3        2.761e+6 
         3050.6        2.829e+6 
         3050.9        2.937e+6 
         3051.2        3.082e+6 
         3051.5        3.239e+6 
         3051.8        3.377e+6 
         3052.1        3.463e+6 
         3052.4        3.475e+6 
         3052.7         3.41e+6 
           3053        3.282e+6 
         3053.3        3.121e+6 
         3053.6        2.963e+6 
         3053.9        2.838e+6 
         3054.2        2.768e+6 
         3054.5        2.755e+6 
         3054.8        2.786e+6 
         3055.1        2.833e+6 
         3055.4        2.864e+6 
         3055.7         2.85e+6 
           3056        2.772e+6 
         3056.3        2.627e+6 
         3056.6        2.427e+6 
         3056.9        2.195e+6 
         3057.2        1.962e+6 
         3057.5        1.755e+6 
         3057.8        1.595e+6 
         3058.1        1.497e+6 
         3058.4        1.468e+6 
         3058.7        1.512e+6 
           3059        1.626e+6 
         3059.3        1.807e+6 
         3059.6        2.042e+6 
         3059.9        2.312e+6 
         3060.2        2.593e+6 
         3060.5        2.854e+6 
         3060.8        3.072e+6 
         3061.1        3.227e+6 
         3061.4        3.309e+6 
         3061.7        3.315e+6 
           3062        3.251e+6 
         3062.3        3.127e+6 
         3062.6        2.958e+6 
         3062.9        2.765e+6 
         3063.2        2.566e+6 
         3063.5        2.382e+6 
         3063.8        2.231e+6 
         3064.1        2.119e+6 
         3064.4        2.047e+6 
         3064.7        2.003e+6 
           3065         1.97e+6 
         3065.3        1.929e+6 
         3065.6         1.87e+6 
         3065.9        1.791e+6 
         3066.2        1.701e+6 
         3066.5        1.616e+6 
         3066.8        1.559e+6 
         3067.1        1.549e+6 
         3067.4        1.597e+6 
         3067.7        1.707e+6 
           3068         1.87e+6 
         3068.3         2.07e+6 
         3068.6        2.284e+6 
         3068.9        2.489e+6 
         3069.2        2.667e+6 
         3069.5        2.806e+6 
         3069.8        2.904e+6 
         3070.1        2.964e+6 
         3070.4        2.992e+6 
         3070.7        2.995e+6 
           3071        2.978e+6 
         3071.3        2.948e+6 
         3071.6        2.911e+6 
         3071.9        2.877e+6 
         3072.2        2.855e+6 
         3072.5        2.852e+6 
         3072.8        2.871e+6 
         3073.1        2.901e+6 
         3073.4         2.93e+6 
         3073.7        2.941e+6 
           3074        2.923e+6 
         3074.3        2.872e+6 
         3074.6        2.802e+6 
         3074.9        2.729e+6 
         3075.2        2.681e+6 
         3075.5        2.673e+6 
         3075.8        2.712e+6 
         3076.1        2.788e+6 
         3076.4        2.881e+6 
         3076.7        2.965e+6 
           3077         3.02e+6 
         3077.3        3.036e+6 
         3077.6        3.016e+6 
         3077.9        2.977e+6 
         3078.2        2.936e+6 
         3078.5        2.908e+6 
         3078.8        2.899e+6 
         3079.1        2.906e+6 
         3079.4        2.915e+6 
         3079.7         2.91e+6 
           3080        2.879e+6 
         3080.3        2.815e+6 
         3080.6        2.724e+6 
         3080.9        2.616e+6 
         3081.2        2.505e+6 
         3081.5        2.408e+6 
         3081.8         2.34e+6 
         3082.1        2.309e+6 
         3082.4        2.319e+6 
         3082.7        2.372e+6 
           3083        2.465e+6 
         3083.3        2.596e+6 
         3083.6        2.759e+6 
         3083.9        2.943e+6 
         3084.2        3.133e+6 
         3084.5         3.31e+6 
         3084.8        3.452e+6 
         3085.1        3.537e+6 
         3085.4        3.553e+6 
         3085.7         3.49e+6 
           3086        3.355e+6 
         3086.3        3.164e+6 
         3086.6        2.942e+6 
         3086.9        2.719e+6 
         3087.2        2.524e+6 
         3087.5        2.377e+6 
         3087.8        2.285e+6 
         3088.1        2.241e+6 
         3088.4        2.229e+6 
         3088.7        2.226e+6 
           3089        2.214e+6 
         3089.3        2.181e+6 
         3089.6        2.129e+6 
         3089.9        2.064e+6 
         3090.2        1.998e+6 
         3090.5        1.939e+6 
         3090.8        1.892e+6 
         3091.1        1.857e+6 
         3091.4         1.83e+6 
         3091.7        1.805e+6 
           3092        1.781e+6 
         3092.3        1.761e+6 
         3092.6        1.752e+6 
         3092.9        1.765e+6 
         3093.2        1.808e+6 
         3093.5        1.883e+6 
         3093.8         1.98e+6 
         3094.1        2.086e+6 
         3094.4        2.181e+6 
         3094.7        2.246e+6 
           3095         2.27e+6 
         3095.3        2.249e+6 
         3095.6        2.187e+6 
         3095.9        2.101e+6 
         3096.2         2.01e+6 
         3096.5        1.935e+6 
         3096.8        1.889e+6 
         3097.1        1.874e+6 
         3097.4         1.88e+6 
         3097.7        1.887e+6 
           3098        1.873e+6 
         3098.3        1.821e+6 
         3098.6        1.724e+6 
         3098.9        1.586e+6 
         3099.2        1.423e+6 
         3099.5        1.256e+6 
         3099.8        1.108e+6 
         3100.1          996800 
         3100.4          936700 
         3100.7          934800 
           3101          994900 
         3101.3        1.116e+6 
         3101.6        1.295e+6 
         3101.9         1.52e+6 
         3102.2        1.776e+6 
         3102.5         2.04e+6 
         3102.8        2.291e+6 
         3103.1        2.504e+6 
         3103.4        2.663e+6 
         3103.7        2.758e+6 
           3104        2.791e+6 
         3104.3        2.773e+6 
         3104.6        2.723e+6 
         3104.9        2.661e+6 
         3105.2        2.613e+6 
         3105.5        2.596e+6 
         3105.8        2.621e+6 
         3106.1        2.691e+6 
         3106.4        2.796e+6 
         3106.7        2.924e+6 
           3107        3.058e+6 
         3107.3        3.181e+6 
         3107.6        3.282e+6 
         3107.9        3.351e+6 
         3108.2        3.384e+6 
         3108.5        3.384e+6 
         3108.8        3.358e+6 
         3109.1        3.315e+6 
         3109.4        3.268e+6 
         3109.7        3.231e+6 
           3110        3.214e+6 
         3110.3        3.225e+6 
         3110.6        3.262e+6 
         3110.9        3.317e+6 
         3111.2        3.379e+6 
         3111.5        3.434e+6 
         3111.8        3.468e+6 
         3112.1         3.47e+6 
         3112.4        3.438e+6 
         3112.7        3.372e+6 
           3113        3.281e+6 
         3113.3        3.181e+6 
         3113.6         3.09e+6 
         3113.9        3.026e+6 
         3114.2        3.005e+6 
         3114.5        3.028e+6 
         3114.8        3.087e+6 
         3115.1        3.163e+6 
         3115.4        3.229e+6 
         3115.7         3.26e+6 
           3116        3.238e+6 
         3116.3        3.157e+6 
         3116.6        3.024e+6 
         3116.9        2.859e+6 
         3117.2        2.683e+6 
         3117.5        2.517e+6 
         3117.8        2.377e+6 
         3118.1        2.271e+6 
         3118.4        2.199e+6 
         3118.7        2.157e+6 
           3119        2.142e+6 
         3119.3        2.146e+6 
         3119.6        2.168e+6 
         3119.9        2.201e+6 
         3120.2         2.24e+6 
         3120.5        2.276e+6 
         3120.8        2.301e+6 
         3121.1        2.309e+6 
         3121.4        2.302e+6 
         3121.7        2.286e+6 
           3122        2.274e+6 
         3122.3        2.277e+6 
         3122.6        2.302e+6 
         3122.9        2.347e+6 
         3123.2        2.406e+6 
         3123.5        2.464e+6 
         3123.8        2.508e+6 
         3124.1         2.53e+6 
         3124.4        2.529e+6 
         3124.7        2.516e+6 
           3125        2.502e+6 
         3125.3        2.507e+6 
         3125.6        2.538e+6 
         3125.9          2.6e+6 
         3126.2        2.685e+6 
         3126.5        2.776e+6 
         3126.8        2.857e+6 
         3127.1        2.912e+6 
         3127.4        2.934e+6 
         3127.7        2.924e+6 
           3128        2.891e+6 
         3128.3        2.849e+6 
         3128.6        2.808e+6 
         3128.9        2.776e+6 
         3129.2        2.752e+6 
         3129.5        2.729e+6 
         3129.8        2.704e+6 
         3130.1        2.673e+6 
         3130.4        2.637e+6 
         3130.7        2.598e+6 
           3131        2.559e+6 
         3131.3        2.522e+6 
         3131.6        2.487e+6 
         3131.9        2.453e+6 
         3132.2        2.417e+6 
         3132.5        2.378e+6 
         3132.8        2.338e+6 
         3133.1        2.301e+6 
         3133.4        2.275e+6 
         3133.7        2.271e+6 
           3134        2.296e+6 
         3134.3        2.356e+6 
         3134.6        2.444e+6 
         3134.9        2.548e+6 
         3135.2        2.651e+6 
         3135.5        2.739e+6 
         3135.8        2.803e+6 
         3136.1        2.843e+6 
         3136.4        2.867e+6 
         3136.7        2.882e+6 
           3137        2.893e+6 
         3137.3        2.902e+6 
         3137.6        2.904e+6 
         3137.9        2.897e+6 
         3138.2        2.881e+6 
         3138.5        2.861e+6 
         3138.8        2.845e+6 
         3139.1        2.841e+6 
         3139.4        2.856e+6 
         3139.7        2.892e+6 
           3140        2.945e+6 
         3140.3         3.01e+6 
         3140.6        3.072e+6 
         3140.9        3.119e+6 
         3141.2        3.131e+6 
         3141.5        3.098e+6 
         3141.8        3.008e+6 
         3142.1        2.858e+6 
         3142.4        2.653e+6 
         3142.7        2.404e+6 
           3143        2.132e+6 
         3143.3         1.86e+6 
         3143.6        1.614e+6 
         3143.9        1.419e+6 
         3144.2        1.291e+6 
         3144.5        1.238e+6 
         3144.8         1.26e+6 
         3145.1        1.343e+6 
         3145.4         1.47e+6 
         3145.7        1.616e+6 
           3146        1.763e+6 
         3146.3        1.896e+6 
         3146.6        2.011e+6 
         3146.9        2.112e+6 
         3147.2        2.207e+6 
         3147.5        2.306e+6 
         3147.8        2.413e+6 
         3148.1        2.529e+6 
         3148.4        2.645e+6 
         3148.7        2.754e+6 
           3149        2.849e+6 
         3149.3        2.927e+6 
         3149.6        2.989e+6 
         3149.9        3.038e+6 
         3150.2        3.077e+6 
         3150.5        3.104e+6 
         3150.8        3.116e+6 
         3151.1        3.114e+6 
         3151.4        3.098e+6 
         3151.7        3.075e+6 
           3152        3.054e+6 
         3152.3        3.042e+6 
         3152.6         3.04e+6 
         3152.9        3.046e+6 
         3153.2         3.05e+6 
         3153.5        3.044e+6 
         3153.8        3.022e+6 
         3154.1        2.982e+6 
         3154.4        2.927e+6 
         3154.7        2.862e+6 
           3155         2.79e+6 
         3155.3        2.709e+6 
         3155.6        2.613e+6 
         3155.9        2.498e+6 
         3156.2        2.361e+6 
         3156.5        2.205e+6 
         3156.8        2.039e+6 
         3157.1        1.874e+6 
         3157.4        1.725e+6 
         3157.7        1.604e+6 
           3158        1.518e+6 
         3158.3        1.472e+6 
         3158.6         1.46e+6 
         3158.9        1.475e+6 
         3159.2        1.507e+6 
         3159.5        1.542e+6 
         3159.8        1.571e+6 
         3160.1        1.586e+6 
         3160.4        1.589e+6 
         3160.7        1.585e+6 
           3161        1.586e+6 
         3161.3        1.604e+6 
         3161.6        1.648e+6 
         3161.9        1.723e+6 
         3162.2        1.824e+6 
         3162.5        1.941e+6 
         3162.8        2.059e+6 
         3163.1        2.162e+6 
         3163.4        2.238e+6 
         3163.7        2.281e+6 
           3164        2.294e+6 
         3164.3        2.288e+6 
         3164.6        2.276e+6 
         3164.9        2.274e+6 
         3165.2         2.29e+6 
         3165.5        2.328e+6 
         3165.8        2.386e+6 
         3166.1        2.453e+6 
         3166.4        2.518e+6 
         3166.7        2.568e+6 
           3167        2.591e+6 
         3167.3        2.581e+6 
         3167.6         2.54e+6 
         3167.9        2.478e+6 
         3168.2        2.411e+6 
         3168.5        2.359e+6 
         3168.8        2.341e+6 
         3169.1        2.369e+6 
         3169.4        2.444e+6 
         3169.7        2.559e+6 
           3170        2.699e+6 
         3170.3        2.848e+6 
         3170.6         2.99e+6 
         3170.9        3.115e+6 
         3171.2        3.219e+6 
         3171.5        3.299e+6 
         3171.8        3.354e+6 
         3172.1        3.383e+6 
         3172.4        3.384e+6 
         3172.7        3.356e+6 
           3173        3.301e+6 
         3173.3        3.227e+6 
         3173.6        3.143e+6 
         3173.9        3.062e+6 
         3174.2        2.997e+6 
         3174.5         2.96e+6 
         3174.8        2.959e+6 
         3175.1        2.997e+6 
         3175.4         3.07e+6 
         3175.7        3.163e+6 
           3176        3.257e+6 
         3176.3        3.328e+6 
         3176.6        3.357e+6 
         3176.9        3.332e+6 
         3177.2        3.252e+6 
         3177.5        3.122e+6 
         3177.8        2.955e+6 
         3178.1        2.765e+6 
