# Granada HRES Library
# atmosphere = Phoenix  (atmosphere model used)
# feh = -10  (value for [Fe/H] for the model.)
# logg = 5.5 log(cm/s2) (value for Log(G) for the model.)
# teff = 4500 K (value for the effective temperature for the model. Temperatures are given in K)
#
# column 1: WAVELENGTH (ANGSTROM), Wavelength in Angstrom
# column 2: FLUX (ERG/CM2/S/A), Flux in erg/cm2/s/A
         3000.2           35600 
         3000.5           34380 
         3000.8           33470 
         3001.1           32960 
         3001.4           32690 
         3001.7           32370 
           3002           31860 
         3002.3           31320 
         3002.6           31310 
         3002.9           32550 
         3003.2           35590 
         3003.5           40560 
         3003.8           47090 
         3004.1           54350 
         3004.4           61420 
         3004.7           67480 
           3005           71940 
         3005.3           74450 
         3005.6           74780 
         3005.9           72840 
         3006.2           68740 
         3006.5           62960 
         3006.8           56300 
         3007.1           49750 
         3007.4           44260 
         3007.7           40470 
           3008           38670 
         3008.3           38810 
         3008.6           40570 
         3008.9           43610 
         3009.2           47670 
         3009.5           52490 
         3009.8           57640 
         3010.1           62420 
         3010.4           65980 
         3010.7           67630 
           3011           67340 
         3011.3           65840 
         3011.6           64440 
         3011.9           64340 
         3012.2           66090 
         3012.5           69310 
         3012.8           72920 
         3013.1           75670 
         3013.4           76730 
         3013.7           75950 
           3014           73700 
         3014.3           70670 
         3014.6           67440 
         3014.9           64450 
         3015.2           61850 
         3015.5           59660 
         3015.8           57850 
         3016.1           56390 
         3016.4           55190 
         3016.7           54060 
           3017           52830 
         3017.3           51400 
         3017.6           49810 
         3017.9           48140 
         3018.2           46380 
         3018.5           44440 
         3018.8           42190 
         3019.1           39540 
         3019.4           36460 
         3019.7           33100 
           3020           29790 
         3020.3           27040 
         3020.6           25480 
         3020.9           25580 
         3021.2           27490 
         3021.5           30910 
         3021.8           35170 
         3022.1           39450 
         3022.4           42910 
         3022.7           44960 
           3023           45360 
         3023.3           44340 
         3023.6           42530 
         3023.9           40670 
         3024.2           39350 
         3024.5           38700 
         3024.8           38460 
         3025.1           38370 
         3025.4           38510 
         3025.7           39420 
           3026           41830 
         3026.3           46240 
         3026.6           52640 
         3026.9           60400 
         3027.2           68670 
         3027.5           76510 
         3027.8           83250 
         3028.1           88410 
         3028.4           91730 
         3028.7           93100 
           3029           92580 
         3029.3           90420 
         3029.6           87060 
         3029.9           83000 
         3030.2           78740 
         3030.5           74820 
         3030.8           71970 
         3031.1           71080 
         3031.4           72950 
         3031.7           77820 
           3032           84950 
         3032.3           92750 
         3032.6           99190 
         3032.9          102700 
         3033.2          102700 
         3033.5           99680 
         3033.8           95290 
         3034.1           91060 
         3034.4           87970 
         3034.7           86010 
           3035           84380 
         3035.3           82020 
         3035.6           78160 
         3035.9           72690 
         3036.2           66080 
         3036.5           59180 
         3036.8           53020 
         3037.1           48580 
         3037.4           46530 
         3037.7           47100 
           3038           49970 
         3038.3           54400 
         3038.6           59400 
         3038.9           63930 
         3039.2           67190 
         3039.5           68630 
         3039.8           68100 
         3040.1           65800 
         3040.4           62240 
         3040.7           58070 
           3041           54000 
         3041.3           50780 
         3041.6           49150 
         3041.9           49680 
         3042.2           52580 
         3042.5           57500 
         3042.8           63490 
         3043.1           69390 
         3043.4           74150 
         3043.7           77170 
           3044           78370 
         3044.3           78100 
         3044.6           76940 
         3044.9           75400 
         3045.2           73770 
         3045.5           71900 
         3045.8           69430 
         3046.1           65960 
         3046.4           61460 
         3046.7           56350 
           3047           51460 
         3047.3           47730 
         3047.6           45920 
         3047.9           46360 
         3048.2           48860 
         3048.5           52810 
         3048.8           57280 
         3049.1           61290 
         3049.4           64030 
         3049.7           65160 
           3050           65010 
         3050.3           64540 
         3050.6           64980 
         3050.9           67300 
         3051.2           71740 
         3051.5           77660 
         3051.8           83700 
         3052.1           88310 
         3052.4           90240 
         3052.7           88980 
           3053           84870 
         3053.3           78940 
         3053.6           72660 
         3053.9           67470 
         3054.2           64460 
         3054.5           64050 
         3054.8           65920 
         3055.1           69050 
         3055.4           72090 
         3055.7           73720 
           3056           73060 
         3056.3           69880 
         3056.6           64690 
         3056.9           58500 
         3057.2           52420 
         3057.5           47350 
         3057.8           43690 
         3058.1           41410 
         3058.4           40350 
         3058.7           40500 
           3059           42070 
         3059.3           45290 
         3059.6           50150 
         3059.9           56200 
         3060.2           62660 
         3060.5           68650 
         3060.8           73520 
         3061.1           76990 
         3061.4           79140 
         3061.7           80180 
           3062           80150 
         3062.3           78770 
         3062.6           75690 
         3062.9           70790 
         3063.2           64530 
         3063.5           57890 
         3063.8           52070 
         3064.1           48000 
         3064.4           45980 
         3064.7           45660 
           3065           46240 
         3065.3           46820 
         3065.6           46760 
         3065.9           45830 
         3066.2           44250 
         3066.5           42470 
         3066.8           40990 
         3067.1           40220 
         3067.4           40400 
         3067.7           41570 
           3068           43640 
         3068.3           46360 
         3068.6           49360 
         3068.9           52270 
         3069.2           54800 
         3069.5           56970 
         3069.8           59130 
         3070.1           61870 
         3070.4           65590 
         3070.7           70240 
           3071           75210 
         3071.3           79690 
         3071.6           83230 
         3071.9           86010 
         3072.2           88700 
         3072.5           91780 
         3072.8           95050 
         3073.1           97690 
         3073.4           98730 
         3073.7           97660 
           3074           94630 
         3074.3           90350 
         3074.6           85750 
         3074.9           81780 
         3075.2           79390 
         3075.5           79310 
         3075.8           81830 
         3076.1           86520 
         3076.4           92260 
         3076.7           97560 
           3077          101100 
         3077.3          102000 
         3077.6          100500 
         3077.9           97310 
         3078.2           93680 
         3078.5           90520 
         3078.8           88050 
         3079.1           85820 
         3079.4           83090 
         3079.7           79390 
           3080           74740 
         3080.3           69530 
         3080.6           64250 
         3080.9           59290 
         3081.2           54960 
         3081.5           51510 
         3081.8           49180 
         3082.1           48080 
         3082.4           48110 
         3082.7           48990 
           3083           50480 
         3083.3           52440 
         3083.6           54850 
         3083.9           57580 
         3084.2           60410 
         3084.5           63100 
         3084.8           65540 
         3085.1           67770 
         3085.4           69710 
         3085.7           71100 
           3086           71670 
         3086.3           71450 
         3086.6           70960 
         3086.9           71050 
         3087.2           72470 
         3087.5           75450 
         3087.8           79410 
         3088.1           83110 
         3088.4           85110 
         3088.7           84310 
           3089           80510 
         3089.3           74480 
         3089.6           67540 
         3089.9           61020 
         3090.2           55700 
         3090.5           51710 
         3090.8           48690 
         3091.1           46110 
         3091.4           43530 
         3091.7           40840 
           3092           38260 
         3092.3           36400 
         3092.6           35980 
         3092.9           37480 
         3093.2           40860 
         3093.5           45420 
         3093.8           50130 
         3094.1           54020 
         3094.4           56450 
         3094.7           57280 
           3095           56750 
         3095.3           55270 
         3095.6           53360 
         3095.9           51580 
         3096.2           50510 
         3096.5           50650 
         3096.8           52210 
         3097.1           54910 
         3097.4           57940 
         3097.7           60210 
           3098           60810 
         3098.3           59350 
         3098.6           56110 
         3098.9           51860 
         3099.2           47590 
         3099.5           44190 
         3099.8           42220 
         3100.1           41740 
         3100.4           42380 
         3100.7           43530 
           3101           44690 
         3101.3           46960 
         3101.6           48930 
         3101.9           52140 
         3102.2           56740 
         3102.5           62540 
         3102.8           69010 
         3103.1           75400 
         3103.4           80860 
         3103.7           84550 
           3104           85770 
         3104.3           84230 
         3104.6           80300 
         3104.9           74920 
         3105.2           69470 
         3105.5           65230 
         3105.8           63050 
         3106.1           63070 
         3106.4           64920 
         3106.7           67910 
           3107           71380 
         3107.3           74740 
         3107.6           77540 
         3107.9           79450 
         3108.2           80520 
         3108.5           81170 
         3108.8           82180 
         3109.1           84350 
         3109.4           88100 
         3109.7           93180 
           3110           98760 
         3110.3          103700 
         3110.6          106800 
         3110.9          107600 
         3111.2          106200 
         3111.5          103300 
         3111.8          100300 
         3112.1           98460 
         3112.4           98480 
         3112.7          100900 
           3113          106500 
         3113.3          115800 
         3113.6          129700 
         3113.9          148200 
         3114.2          170200 
         3114.5          192000 
         3114.8          209100 
         3115.1          216800 
         3115.4          212600 
         3115.7          196800 
           3116          172900 
         3116.3          146000 
         3116.6          121800 
         3116.9          103900 
         3117.2           94350 
         3117.5           92630 
         3117.8           96890 
         3118.1          104300 
         3118.4          112100 
         3118.7          118600 
           3119          123300 
         3119.3          127100 
         3119.6          131500 
         3119.9          136600 
         3120.2          141300 
         3120.5          143300 
         3120.8          140300 
         3121.1          132000 
         3121.4          119700 
         3121.7          106300 
           3122           94870 
         3122.3           87280 
         3122.6           84110 
         3122.9           84730 
         3123.2           87880 
         3123.5           92240 
         3123.8           96720 
         3124.1          100600 
         3124.4          103700 
         3124.7          106400 
           3125          109500 
         3125.3          113900 
         3125.6          120500 
         3125.9          129200 
         3126.2          139100 
         3126.5          147400 
         3126.8          151600 
         3127.1          149600 
         3127.4          141400 
         3127.7          129100 
           3128          116000 
         3128.3          104900 
         3128.6           97330 
         3128.9           93030 
         3129.2           91080 
         3129.5           90610 
         3129.8           91380 
         3130.1           93760 
         3130.4           98170 
         3130.7          104400 
           3131          111500 
         3131.3          117500 
         3131.6          120600 
         3131.9          119500 
         3132.2          114200 
         3132.5          105800 
         3132.8           95990 
         3133.1           86890 
         3133.4           80560 
         3133.7           78700 
           3134           82080 
         3134.3           90100 
         3134.6          100700 
         3134.9          110700 
         3135.2          117500 
         3135.5          119600 
         3135.8          117500 
         3136.1          113600 
         3136.4          110900 
         3136.7          112100 
           3137          118600 
         3137.3          129700 
         3137.6          143200 
         3137.9          155700 
         3138.2          164000 
         3138.5          166100 
         3138.8          161800 
         3139.1          152800 
         3139.4          141600 
         3139.7          130800 
           3140          122500 
         3140.3          117400 
         3140.6          115500 
         3140.9          115500 
         3141.2          116200 
         3141.5          116500 
         3141.8          115900 
         3142.1          114100 
         3142.4          111100 
         3142.7          106900 
           3143          101900 
         3143.3           97010 
         3143.6           93710 
         3143.9           92890 
         3144.2           94970 
         3144.5           99730 
         3144.8          106600 
         3145.1          114200 
         3145.4          121200 
         3145.7          125500 
           3146          125900 
         3146.3          122500 
         3146.6          117800 
         3146.9          114900 
         3147.2          117000 
         3147.5          125300 
         3147.8          138500 
         3148.1          153700 
         3148.4          166700 
         3148.7          174100 
           3149          174100 
         3149.3          167000 
         3149.6          155100 
         3149.9          141200 
         3150.2          128300 
         3150.5          118800 
         3150.8          113800 
         3151.1          113300 
         3151.4          116800 
         3151.7          122800 
           3152          129600 
         3152.3          135000 
         3152.6          137600 
         3152.9          136800 
         3153.2          132900 
         3153.5          127700 
         3153.8          123400 
         3154.1          121800 
         3154.4          123900 
         3154.7          128800 
           3155          134500 
         3155.3          139100 
         3155.6          141200 
         3155.9          141100 
         3156.2          139900 
         3156.5          139600 
         3156.8          141700 
         3157.1          147500 
         3157.4          156900 
         3157.7          169100 
           3158          182300 
         3158.3          194800 
         3158.6          204700 
         3158.9          210200 
         3159.2          210000 
         3159.5          203300 
         3159.8          190900 
         3160.1          175000 
         3160.4          158800 
         3160.7          146000 
           3161          139400 
         3161.3          140500 
         3161.6          149700 
         3161.9          165600 
         3162.2          185400 
         3162.5          205500 
         3162.8          221200 
         3163.1          229000 
         3163.4          227600 
         3163.7          218700 
           3164          206400 
         3164.3          194800 
         3164.6          187300 
         3164.9          185600 
         3165.2          190700 
         3165.5          203600 
         3165.8          225100 
         3166.1          254500 
         3166.4          288100 
         3166.7          318900 
           3167          339000 
         3167.3          342500 
         3167.6          329400 
         3167.9          305800 
         3168.2          282100 
         3168.5          268400 
         3168.8          270900 
         3169.1          288400 
         3169.4          313900 
         3169.7          338500 
           3170          354800 
         3170.3          360900 
         3170.6          360600 
         3170.9          360200 
         3171.2          365200 
         3171.5          376900 
         3171.8          392300 
         3172.1          404800 
         3172.4          409000 
         3172.7          403400 
           3173          391200 
         3173.3          378500 
         3173.6          370000 
         3173.9          366900 
         3174.2          367000 
         3174.5          367200 
         3174.8          366600 
         3175.1          366100 
         3175.4          367500 
         3175.7          370700 
           3176          372900 
         3176.3          369800 
         3176.6          358200 
         3176.9          338400 
         3177.2          314400 
         3177.5          291600 
         3177.8          274100 
         3178.1          262700 
