# Granada HRES Library
# atmosphere = Spectrum  (atmosphere model used)
# feh = 0  (value for [Fe/H] for the model.)
# logg = 1 log(cm/s2) (value for Log(G) for the model.)
# teff = 5000 K (value for the effective temperature for the model. Temperatures are given in K)
#
# column 1: WAVELENGTH (ANGSTROM), Wavelength in Angstrom
# column 2: FLUX (ERG/CM2/S/A), Flux in erg/cm2/s/A
         3000.2           21400 
         3000.5           22010 
         3000.8           23170 
         3001.1           24900 
         3001.4           27370 
         3001.7           30730 
           3002           35640 
         3002.3           42940 
         3002.6           54010 
         3002.9           70300 
         3003.2           93130 
         3003.5          123100 
         3003.8          159600 
         3004.1          200600 
         3004.4          242500 
         3004.7          281000 
           3005          311200 
         3005.3          329000 
         3005.6          331700 
         3005.9          318600 
         3006.2          291300 
         3006.5          253600 
         3006.8          210800 
         3007.1          168500 
         3007.4          131700 
         3007.7          104100 
           3008           87450 
         3008.3           82490 
         3008.6           88700 
         3008.9          105200 
         3009.2          130200 
         3009.5          161400 
         3009.8          195400 
         3010.1          228000 
         3010.4          255000 
         3010.7          272900 
           3011          280900 
         3011.3          280500 
         3011.6          275200 
         3011.9          269200 
         3012.2          265700 
         3012.5          265800 
         3012.8          269000 
         3013.1          273400 
         3013.4          277100 
         3013.7          278400 
           3014          276800 
         3014.3          271900 
         3014.6          264000 
         3014.9          253200 
         3015.2          240200 
         3015.5          225400 
         3015.8          209200 
         3016.1          192000 
         3016.4          173600 
         3016.7          154300 
           3017          134300 
         3017.3          114200 
         3017.6           94970 
         3017.9           77510 
         3018.2           62260 
         3018.5           49530 
         3018.8           39020 
         3019.1           30490 
         3019.4           23680 
         3019.7           18390 
           3020           14630 
         3020.3           12450 
         3020.6           12100 
         3020.9           13740 
         3021.2           17560 
         3021.5           23540 
         3021.8           31480 
         3022.1           40940 
         3022.4           51230 
         3022.7           61470 
           3023           70830 
         3023.3           78620 
         3023.6           84480 
         3023.9           88170 
         3024.2           89710 
         3024.5           89490 
         3024.8           88630 
         3025.1           89040 
         3025.4           93330 
         3025.7          104300 
           3026          124500 
         3026.3          154900 
         3026.6          194400 
         3026.9          240200 
         3027.2          288000 
         3027.5          332800 
         3027.8          369800 
         3028.1          395400 
         3028.4          407500 
         3028.7          406300 
           3029          394100 
         3029.3          374300 
         3029.6          351100 
         3029.9          327900 
         3030.2          307500 
         3030.5          292000 
         3030.8          283400 
         3031.1          283600 
         3031.4          294200 
         3031.7          314800 
           3032          343200 
         3032.3          375400 
         3032.6          406900 
         3032.9          434100 
         3033.2          454700 
         3033.5          468800 
         3033.8          477000 
         3034.1          480300 
         3034.4          478800 
         3034.7          471200 
           3035          455300 
         3035.3          429000 
         3035.6          391400 
         3035.9          343600 
         3036.2          289400 
         3036.5          234500 
         3036.8          185100 
         3037.1          146500 
         3037.4          122400 
         3037.7          114400 
           3038          121200 
         3038.3          140000 
         3038.6          166500 
         3038.9          195900 
         3039.2          223800 
         3039.5          246400 
         3039.8          261600 
         3040.1          268300 
         3040.4          267200 
         3040.7          259600 
           3041          248100 
         3041.3          235800 
         3041.6          226200 
         3041.9          222800 
         3042.2          227400 
         3042.5          240300 
         3042.8          259100 
         3043.1          280100 
         3043.4          298800 
         3043.7          311800 
           3044          317600 
         3044.3          316000 
         3044.6          308200 
         3044.9          295400 
         3045.2          278600 
         3045.5          258300 
         3045.8          234400 
         3046.1          207500 
         3046.4          179000 
         3046.7          151200 
           3047          127500 
         3047.3          111300 
         3047.6          105400 
         3047.9          111000 
         3048.2          127300 
         3048.5          151400 
         3048.8          178800 
         3049.1          205100 
         3049.4          226800 
         3049.7          243200 
           3050          256500 
         3050.3          271600 
         3050.6          293300 
         3050.9          324700 
         3051.2          364800 
         3051.5          408500 
         3051.8          447400 
         3052.1          473100 
         3052.4          479200 
         3052.7          464100 
           3053          431200 
         3053.3          388000 
         3053.6          343600 
         3053.9          306600 
         3054.2          282500 
         3054.5          272600 
         3054.8          274400 
         3055.1          282100 
         3055.4          289000 
         3055.7          288700 
           3056          277300 
         3056.3          253900 
         3056.6          221000 
         3056.9          183100 
         3057.2          145300 
         3057.5          112000 
         3057.8           86320 
         3058.1           69780 
         3058.4           62940 
         3058.7           66110 
           3059           80040 
         3059.3          104800 
         3059.6          140300 
         3059.9          185000 
         3060.2          236100 
         3060.5          289200 
         3060.8          339000 
         3061.1          380600 
         3061.4          410100 
         3061.7          425000 
           3062          424800 
         3062.3          410800 
         3062.6          385500 
         3062.9          353200 
         3063.2          318600 
         3063.5          286600 
         3063.8          260900 
         3064.1          243300 
         3064.4          233400 
         3064.7          228600 
           3065          225300 
         3065.3          219400 
         3065.6          208900 
         3065.9          193900 
         3066.2          176900 
         3066.5          162500 
         3066.8          155800 
         3067.1          161400 
         3067.4          182300 
         3067.7          218500 
           3068          267700 
         3068.3          325000 
         3068.6          383400 
         3068.9          436100 
         3069.2          477300 
         3069.5          503500 
         3069.8          514300 
         3070.1          511700 
         3070.4          498700 
         3070.7          478500 
           3071          453300 
         3071.3          424800 
         3071.6          394900 
         3071.9          366800 
         3072.2          344000 
         3072.5          329900 
         3072.8          325300 
         3073.1          328700 
         3073.4          335800 
         3073.7          341300 
           3074          341200 
         3074.3          334100 
         3074.6          322200 
         3074.9          311100 
         3075.2          306500 
         3075.5          313400 
         3075.8          332400 
         3076.1          360200 
         3076.4          389900 
         3076.7          413900 
           3077          426000 
         3077.3          423900 
         3077.6          409700 
         3077.9          388700 
         3078.2          368100 
         3078.5          354100 
         3078.8          350700 
         3079.1          358000 
         3079.4          373200 
         3079.7          390900 
           3080          405700 
         3080.3          413400 
         3080.6          412000 
         3080.9          402200 
         3081.2          386200 
         3081.5          367800 
         3081.8          350600 
         3082.1          338000 
         3082.4          332500 
         3082.7          335800 
           3083          349700 
         3083.3          375800 
         3083.6          414900 
         3083.9          466200 
         3084.2          526600 
         3084.5          590400 
         3084.8          649500 
         3085.1          695700 
         3085.4          721000 
         3085.7          720200 
           3086          691800 
         3086.3          639300 
         3086.6          570300 
         3086.9          495000 
         3087.2          424000 
         3087.5          365700 
         3087.8          325000 
         3088.1          302200 
         3088.4          294500 
         3088.7          296400 
           3089          302100 
         3089.3          307100 
         3089.6          309700 
         3089.9          309800 
         3090.2          308200 
         3090.5          306500 
         3090.8          305400 
         3091.1          304800 
         3091.4          303700 
         3091.7          300200 
           3092          293100 
         3092.3          282600 
         3092.6          271000 
         3092.9          262600 
         3093.2          261400 
         3093.5          269700 
         3093.8          286900 
         3094.1          309400 
         3094.4          331500 
         3094.7          347400 
           3095          353500 
         3095.3          348900 
         3095.6          335800 
         3095.9          318900 
         3096.2          303500 
         3096.5          293800 
         3096.8          291900 
         3097.1          296300 
         3097.4          302900 
         3097.7          306000 
           3098          300200 
         3098.3          282400 
         3098.6          252900 
         3098.9          215100 
         3099.2          174300 
         3099.5          136100 
         3099.8          104600 
         3100.1           82470 
         3100.4           70710 
         3100.7           69820 
           3101           79790 
         3101.3          100700 
         3101.6          132200 
         3101.9          173400 
         3102.2          221500 
         3102.5          272400 
         3102.8          320900 
         3103.1          362400 
         3103.4          393100 
         3103.7          411700 
           3104          418000 
         3104.3          414600 
         3104.6          405400 
         3104.9          395300 
         3105.2          389300 
         3105.5          392100 
         3105.8          406200 
         3106.1          431700 
         3106.4          466100 
         3106.7          505100 
           3107          544200 
         3107.3          579000 
         3107.6          606700 
         3107.9          625500 
         3108.2          634200 
         3108.5          632300 
         3108.8          620200 
         3109.1          599500 
         3109.4          573700 
         3109.7          548200 
           3110          529500 
         3110.3          523200 
         3110.6          531800 
         3110.9          554300 
         3111.2          585400 
         3111.5          617500 
         3111.8          642600 
         3112.1          654400 
         3112.4          650000 
         3112.7          629600 
           3113          597600 
         3113.3          560200 
         3113.6          524600 
         3113.9          496700 
         3114.2          479700 
         3114.5          473900 
         3114.8          476400 
         3115.1          482700 
         3115.4          487800 
         3115.7          487600 
           3116          479500 
         3116.3          463100 
         3116.6          439800 
         3116.9          411800 
         3117.2          381600 
         3117.5          352100 
         3117.8          325700 
         3118.1          304100 
         3118.4          288300 
         3118.7          278200 
           3119          273700 
         3119.3          274900 
         3119.6          281700 
         3119.9          294200 
         3120.2          311100 
         3120.5          329600 
         3120.8          346100 
         3121.1          357300 
         3121.4          361200 
         3121.7          358800 
           3122          353500 
         3122.3          349400 
         3122.6          350600 
         3122.9          358700 
         3123.2          373100 
         3123.5          390200 
         3123.8          405200 
         3124.1          413500 
         3124.4          413100 
         3124.7          405400 
           3125          395400 
         3125.3          389500 
         3125.6          393700 
         3125.9          410800 
         3126.2          439500 
         3126.5          474600 
         3126.8          508600 
         3127.1          534600 
         3127.4          547400 
         3127.7          545700 
           3128          531300 
         3128.3          508700 
         3128.6          482900 
         3128.9          458000 
         3129.2          435800 
         3129.5          416600 
         3129.8          399600 
         3130.1          384400 
         3130.4          371300 
         3130.7          360700 
           3131          352700 
         3131.3          346700 
         3131.6          340900 
         3131.9          333300 
         3132.2          323200 
         3132.5          310600 
         3132.8          296900 
         3133.1          284600 
         3133.4          277200 
         3133.7          278500 
           3134          291000 
         3134.3          314700 
         3134.6          347300 
         3134.9          383800 
         3135.2          418200 
         3135.5          445500 
         3135.8          463300 
         3136.1          472200 
         3136.4          475100 
         3136.7          475900 
           3137          477100 
         3137.3          479400 
         3137.6          482200 
         3137.9          484800 
         3138.2          486800 
         3138.5          488500 
         3138.8          491200 
         3139.1          496600 
         3139.4          506100 
         3139.7          520900 
           3140          540900 
         3140.3          564200 
         3140.6          586800 
         3140.9          603400 
         3141.2          609000 
         3141.5          599900 
         3141.8          575000 
         3142.1          535600 
         3142.4          485100 
         3142.7          427800 
           3143          368300 
         3143.3          311300 
         3143.6          261100 
         3143.9          221100 
         3144.2          194300 
         3144.5          181600 
         3144.8          182300 
         3145.1          194000 
         3145.4          212500 
         3145.7          233500 
           3146          253300 
         3146.3          270300 
         3146.6          285700 
         3146.9          302100 
         3147.2          323300 
         3147.5          351800 
         3147.8          388200 
         3148.1          430800 
         3148.4          475500 
         3148.7          518000 
           3149          555000 
         3149.3          585100 
         3149.6          608600 
         3149.9          626800 
         3150.2          640400 
         3150.5          648500 
         3150.8          650200 
         3151.1          644900 
         3151.4          633800 
         3151.7          620100 
           3152          607300 
         3152.3          598400 
         3152.6          594500 
         3152.9          593600 
         3153.2          592600 
         3153.5          587500 
         3153.8          576500 
         3154.1          559700 
         3154.4          539600 
         3154.7          518900 
           3155          499700 
         3155.3          482200 
         3155.6          465500 
         3155.9          447200 
         3156.2          425100 
         3156.5          398100 
         3156.8          366400 
         3157.1          332600 
         3157.4          299300 
         3157.7          270200 
           3158          247900 
         3158.3          233500 
         3158.6          226800 
         3158.9          226300 
         3159.2          229400 
         3159.5          232900 
         3159.8          233700 
         3160.1          230200 
         3160.4          222400 
         3160.7          212400 
           3161          203500 
         3161.3          199700 
         3161.6          204300 
         3161.9          218900 
         3162.2          243400 
         3162.5          275200 
         3162.8          310000 
         3163.1          342500 
         3163.4          368200 
         3163.7          383700 
           3164          388900 
         3164.3          386100 
         3164.6          380100 
         3164.9          375800 
         3165.2          377000 
         3165.5          385400 
         3165.8          400000 
         3166.1          417900 
         3166.4          434800 
         3166.7          446000 
           3167          447800 
         3167.3          438500 
         3167.6          420200 
         3167.9          397300 
         3168.2          376700 
         3168.5          365500 
         3168.8          368800 
         3169.1          388500 
         3169.4          422600 
         3169.7          466500 
           3170          513900 
         3170.3          559600 
         3170.6          600200 
         3170.9          635000 
         3171.2          664700 
         3171.5          690600 
         3171.8          713100 
         3172.1          730500 
         3172.4          740300 
         3172.7          740000 
           3173          728600 
         3173.3          707600 
         3173.6          680800 
         3173.9          653400 
         3174.2          631200 
         3174.5          618900 
         3174.8          620100 
         3175.1          635700 
         3175.4          663000 
         3175.7          695900 
           3176          726400 
         3176.3          745900 
         3176.6          748200 
         3176.9          730600 
         3177.2          694700 
         3177.5          645300 
         3177.8          588400 
         3178.1          529900 
