# Granada HRES Library
# atmosphere = Phoenix  (atmosphere model used)
# feh = 0  (value for [Fe/H] for the model.)
# logg = 5.5 log(cm/s2) (value for Log(G) for the model.)
# teff = 3000 K (value for the effective temperature for the model. Temperatures are given in K)
#
# column 1: WAVELENGTH (ANGSTROM), Wavelength in Angstrom
# column 2: FLUX (ERG/CM2/S/A), Flux in erg/cm2/s/A
         3000.2           4.101 
         3000.5           3.551 
         3000.8           3.133 
         3001.1           2.873 
         3001.4           2.749 
         3001.7           2.721 
           3002           2.773 
         3002.3           2.946 
         3002.6           3.359 
         3002.9           4.174 
         3003.2            5.55 
         3003.5           7.571 
         3003.8           10.19 
         3004.1            13.2 
         3004.4           16.27 
         3004.7           18.99 
           3005           20.97 
         3005.3           21.92 
         3005.6           21.68 
         3005.9           20.27 
         3006.2            17.9 
         3006.5           14.95 
         3006.8           11.88 
         3007.1             9.1 
         3007.4           6.971 
         3007.7           5.677 
           3008           5.276 
         3008.3           5.741 
         3008.6           7.014 
         3008.9           9.038 
         3009.2           11.75 
         3009.5           15.01 
         3009.8           18.51 
         3010.1           21.79 
         3010.4           24.32 
         3010.7           25.69 
           3011           25.82 
         3011.3           25.05 
         3011.6           24.05 
         3011.9            23.5 
         3012.2           23.83 
         3012.5              25 
         3012.8           26.66 
         3013.1           28.25 
         3013.4           29.29 
         3013.7            29.5 
           3014           28.86 
         3014.3           27.56 
         3014.6           25.85 
         3014.9           24.01 
         3015.2            22.2 
         3015.5           20.42 
         3015.8           18.62 
         3016.1           16.77 
         3016.4           14.88 
         3016.7           12.99 
           3017           11.18 
         3017.3           9.557 
         3017.6           8.171 
         3017.9           7.044 
         3018.2           6.133 
         3018.5           5.352 
         3018.8            4.62 
         3019.1           3.895 
         3019.4           3.183 
         3019.7           2.521 
           3020           1.964 
         3020.3           1.566 
         3020.6           1.376 
         3020.9            1.43 
         3021.2           1.739 
         3021.5           2.281 
         3021.8           2.995 
         3022.1            3.78 
         3022.4           4.518 
         3022.7           5.092 
           3023           5.428 
         3023.3           5.525 
         3023.6           5.453 
         3023.9           5.318 
         3024.2           5.205 
         3024.5           5.136 
         3024.8           5.102 
         3025.1           5.127 
         3025.4           5.332 
         3025.7           5.941 
           3026           7.213 
         3026.3           9.334 
         3026.6           12.33 
         3026.9           16.08 
         3027.2            20.3 
         3027.5           24.71 
         3027.8           29.04 
         3028.1           33.16 
         3028.4           36.99 
         3028.7           40.52 
           3029           43.67 
         3029.3           46.24 
         3029.6           47.97 
         3029.9           48.55 
         3030.2           47.81 
         3030.5           45.89 
         3030.8           43.31 
         3031.1           40.95 
         3031.4           39.81 
         3031.7           40.59 
           3032           43.33 
         3032.3           47.32 
         3032.6           51.31 
         3032.9           54.05 
         3033.2           54.75 
         3033.5           53.31 
         3033.8           50.23 
         3034.1           46.34 
         3034.4           42.31 
         3034.7           38.47 
           3035           34.77 
         3035.3           30.93 
         3035.6           26.78 
         3035.9           22.35 
         3036.2            17.9 
         3036.5           13.83 
         3036.8            10.5 
         3037.1           8.253 
         3037.4           7.311 
         3037.7           7.756 
           3038           9.526 
         3038.3            12.4 
         3038.6           16.01 
         3038.9           19.82 
         3039.2           23.33 
         3039.5           26.09 
         3039.8            27.9 
         3040.1           28.82 
         3040.4           29.06 
         3040.7           28.88 
           3041           28.47 
         3041.3           27.99 
         3041.6           27.63 
         3041.9           27.62 
         3042.2           28.11 
         3042.5           29.01 
         3042.8           30.02 
         3043.1           30.77 
         3043.4           31.03 
         3043.7           30.77 
           3044           30.08 
         3044.3           29.08 
         3044.6           27.84 
         3044.9           26.37 
         3045.2           24.62 
         3045.5           22.53 
         3045.8           20.07 
         3046.1           17.26 
         3046.4           14.26 
         3046.7           11.35 
           3047           8.849 
         3047.3           7.046 
         3047.6           6.123 
         3047.9           6.118 
         3048.2           6.931 
         3048.5           8.338 
         3048.8           10.01 
         3049.1           11.56 
         3049.4           12.66 
         3049.7           13.12 
           3050           13.05 
         3050.3           12.83 
         3050.6           12.98 
         3050.9              14 
         3051.2           16.17 
         3051.5            19.4 
         3051.8           23.28 
         3052.1           27.14 
         3052.4           30.21 
         3052.7            31.8 
           3053           31.58 
         3053.3           29.76 
         3053.6            27.1 
         3053.9           24.57 
         3054.2           23.09 
         3054.5           23.07 
         3054.8           24.31 
         3055.1           26.13 
         3055.4           27.62 
         3055.7           28.06 
           3056           27.05 
         3056.3           24.68 
         3056.6           21.34 
         3056.9           17.59 
         3057.2           13.97 
         3057.5           10.86 
         3057.8           8.431 
         3058.1           6.728 
         3058.4           5.705 
         3058.7           5.356 
           3059           5.735 
         3059.3           6.933 
         3059.6           9.013 
         3059.9           11.95 
         3060.2           15.63 
         3060.5           19.86 
         3060.8           24.47 
         3061.1           29.35 
         3061.4           34.43 
         3061.7           39.49 
           3062           44.06 
         3062.3           47.37 
         3062.6            48.6 
         3062.9           47.25 
         3063.2           43.55 
         3063.5           38.44 
         3063.8           33.33 
         3064.1           29.54 
         3064.4           27.89 
         3064.7           28.36 
           3065           30.18 
         3065.3           32.13 
         3065.6           33.15 
         3065.9           32.72 
         3066.2           31.03 
         3066.5           28.81 
         3066.8           26.94 
         3067.1           26.16 
         3067.4            26.9 
         3067.7           29.25 
           3068           32.96 
         3068.3           37.51 
         3068.6           42.29 
         3068.9            46.8 
         3069.2           50.88 
         3069.5           54.82 
         3069.8           59.18 
         3070.1           64.47 
         3070.4           70.71 
         3070.7           77.36 
           3071           83.58 
         3071.3           88.91 
         3071.6           93.59 
         3071.9           98.45 
         3072.2           104.1 
         3072.5           110.1 
         3072.8             115 
         3073.1           116.9 
         3073.4           114.9 
         3073.7           109.1 
           3074             101 
         3074.3           91.91 
         3074.6           83.09 
         3074.9           75.24 
         3075.2           69.07 
         3075.5           65.32 
         3075.8           64.47 
         3076.1           66.24 
         3076.4           69.46 
         3076.7           72.49 
           3077           73.91 
         3077.3           72.99 
         3077.6           69.88 
         3077.9           65.23 
         3078.2           59.84 
         3078.5           54.27 
         3078.8           48.71 
         3079.1           43.15 
         3079.4           37.51 
         3079.7           31.84 
           3080           26.29 
         3080.3           21.08 
         3080.6           16.45 
         3080.9           12.54 
         3081.2           9.442 
         3081.5           7.194 
         3081.8           5.789 
         3082.1            5.21 
         3082.4           5.428 
         3082.7           6.415 
           3083           8.131 
         3083.3           10.52 
         3083.6           13.49 
         3083.9           16.89 
         3084.2           20.54 
         3084.5           24.25 
         3084.8           27.89 
         3085.1           31.28 
         3085.4           34.22 
         3085.7            36.5 
           3086           38.04 
         3086.3           39.04 
         3086.6           39.91 
         3086.9           41.09 
         3087.2            42.8 
         3087.5           44.82 
         3087.8            46.6 
         3088.1            47.4 
         3088.4           46.65 
         3088.7           44.12 
           3089           40.03 
         3089.3           34.97 
         3089.6           29.63 
         3089.9           24.62 
         3090.2           20.25 
         3090.5           16.59 
         3090.8           13.52 
         3091.1            10.9 
         3091.4           8.644 
         3091.7           6.754 
           3092            5.29 
         3092.3            4.34 
         3092.6           3.981 
         3092.9           4.262 
         3093.2           5.182 
         3093.5           6.684 
         3093.8           8.662 
         3094.1           10.98 
         3094.4           13.47 
         3094.7              16 
           3095           18.42 
         3095.3            20.6 
         3095.6            22.5 
         3095.9           24.18 
         3096.2           25.89 
         3096.5           27.98 
         3096.8           30.67 
         3097.1           33.89 
         3097.4           37.06 
         3097.7           39.25 
           3098           39.57 
         3098.3           37.61 
         3098.6           33.62 
         3098.9           28.45 
         3099.2           23.15 
         3099.5           18.61 
         3099.8           15.29 
         3100.1           13.21 
         3100.4           12.13 
         3100.7           11.78 
           3101           12.12 
         3101.3           16.35 
         3101.6           21.43 
         3101.9           29.14 
         3102.2           39.51 
         3102.5           52.13 
         3102.8           66.06 
         3103.1           79.92 
         3103.4           91.96 
         3103.7           100.3 
           3104           103.7 
         3104.3           101.6 
         3104.6           94.98 
         3104.9           85.96 
         3105.2           77.29 
         3105.5           71.41 
         3105.8           69.64 
         3106.1           71.93 
         3106.4           77.32 
         3106.7           84.48 
           3107           92.26 
         3107.3           99.84 
         3107.6           106.7 
         3107.9           112.8 
         3108.2           119.1 
         3108.5           127.4 
         3108.8           139.6 
         3109.1           157.8 
         3109.4           181.3 
         3109.7           207.7 
           3110           232.6 
         3110.3           250.5 
         3110.6           257.9 
         3110.9           253.5 
         3111.2           239.2 
         3111.5           218.8 
         3111.8           197.1 
         3112.1           177.2 
         3112.4           161.3 
         3112.7           150.1 
           3113             145 
         3113.3           148.4 
         3113.6           162.3 
         3113.9           187.4 
         3114.2           221.4 
         3114.5           258.7 
         3114.8           291.4 
         3115.1           311.2 
         3115.4           313.2 
         3115.7           296.8 
           3116           266.6 
         3116.3           231.3 
         3116.6             201 
         3116.9           184.5 
         3117.2           187.2 
         3117.5           209.2 
         3117.8           245.4 
         3118.1           287.2 
         3118.4           325.1 
         3118.7           352.5 
           3119           367.8 
         3119.3           373.1 
         3119.6           372.4 
         3119.9           367.6 
         3120.2           358.4 
         3120.5           342.7 
         3120.8           319.3 
         3121.1           290.4 
         3121.4           260.5 
         3121.7           235.2 
           3122             219 
         3122.3             213 
         3122.6           215.9 
         3122.9           224.3 
         3123.2           235.1 
         3123.5           246.2 
         3123.8           256.6 
         3124.1           265.9 
         3124.4             274 
         3124.7           281.4 
           3125           289.7 
         3125.3           300.5 
         3125.6           315.5 
         3125.9           334.2 
         3126.2           353.7 
         3126.5           368.5 
         3126.8           372.8 
         3127.1           363.3 
         3127.4           340.5 
         3127.7           309.7 
           3128           277.9 
         3128.3           251.1 
         3128.6           233.1 
         3128.9           224.2 
         3129.2           223.5 
         3129.5           229.8 
         3129.8             242 
         3130.1           258.3 
         3130.4           275.9 
         3130.7           290.7 
           3131           297.9 
         3131.3           294.6 
         3131.6           279.4 
         3131.9           253.6 
         3132.2           220.6 
         3132.5           184.2 
         3132.8           148.7 
         3133.1           118.5 
         3133.4           97.08 
         3133.7            87.3 
           3134           89.78 
         3134.3           102.8 
         3134.6           122.2 
         3134.9           143.1 
         3135.2           160.9 
         3135.5           173.3 
         3135.8           181.5 
         3136.1           189.6 
         3136.4           203.5 
         3136.7           228.5 
           3137           267.3 
         3137.3           317.8 
         3137.6           372.3 
         3137.9           419.9 
         3138.2           450.2 
         3138.5           457.1 
         3138.8           441.5 
         3139.1           410.3 
         3139.4           372.8 
         3139.7           338.6 
           3140           314.4 
         3140.3           303.5 
         3140.6           305.7 
         3140.9           317.5 
         3141.2             333 
         3141.5             346 
         3141.8           350.9 
         3142.1           344.7 
         3142.4           327.9 
         3142.7           305.6 
           3143           284.5 
         3143.3           271.9 
         3143.6           270.8 
         3143.9           279.4 
         3144.2           292.6 
         3144.5           304.6 
         3144.8           312.1 
         3145.1           315.9 
         3145.4           317.8 
         3145.7           318.9 
           3146           319.5 
         3146.3           320.6 
         3146.6           326.2 
         3146.9           342.6 
         3147.2           374.8 
         3147.5           421.7 
         3147.8           475.8 
         3148.1           524.8 
         3148.4           556.7 
         3148.7           564.3 
           3149           546.3 
         3149.3           507.3 
         3149.6           455.6 
         3149.9           400.5 
         3150.2           351.3 
         3150.5           316.2 
         3150.8           300.8 
         3151.1           307.7 
         3151.4           334.9 
         3151.7           376.6 
           3152           424.2 
         3152.3           468.5 
         3152.6           502.1 
         3152.9           520.8 
         3153.2           525.8 
         3153.5           522.8 
         3153.8           521.8 
         3154.1           533.2 
         3154.4           563.8 
         3154.7           613.2 
           3155             674 
         3155.3           735.1 
         3155.6           786.1 
         3155.9           821.1 
         3156.2           839.2 
         3156.5           843.4 
         3156.8           838.1 
         3157.1             827 
         3157.4           812.1 
         3157.7           794.4 
           3158           775.4 
         3158.3           758.9 
         3158.6           748.5 
         3158.9           744.9 
         3159.2           745.4 
         3159.5           744.7 
         3159.8           739.5 
         3160.1           731.2 
         3160.4             726 
         3160.7           731.3 
           3161           751.4 
         3161.3           785.1 
         3161.6             827 
         3161.9           869.3 
         3162.2           904.9 
         3162.5           928.7 
         3162.8           937.4 
         3163.1           929.9 
         3163.4           906.9 
         3163.7           872.1 
           3164           830.9 
         3164.3           790.5 
         3164.6           759.3 
         3164.9           746.2 
         3165.2           760.3 
         3165.5           808.2 
         3165.8           890.8 
         3166.1            1000 
         3166.4            1121 
         3166.7            1232 
           3167            1314 
         3167.3            1351 
         3167.6            1339 
         3167.9            1284 
         3168.2            1207 
         3168.5            1133 
         3168.8            1084 
         3169.1            1076 
         3169.4            1104 
         3169.7            1154 
           3170            1206 
         3170.3            1245 
         3170.6            1267 
         3170.9            1277 
         3171.2            1288 
         3171.5            1305 
         3171.8            1331 
         3172.1            1360 
         3172.4            1386 
         3172.7            1407 
           3173            1424 
         3173.3            1442 
         3173.6            1462 
         3173.9            1480 
         3174.2            1489 
         3174.5            1486 
         3174.8            1473 
         3175.1            1457 
         3175.4            1447 
         3175.7            1444 
           3176            1444 
         3176.3            1437 
         3176.6            1415 
         3176.9            1376 
         3177.2            1325 
         3177.5            1276 
         3177.8            1235 
         3178.1            1203 
