# Granada HRES Library
# atmosphere = Spectrum  (atmosphere model used)
# feh = 0  (value for [Fe/H] for the model.)
# logg = 0 log(cm/s2) (value for Log(G) for the model.)
# teff = 5000 K (value for the effective temperature for the model. Temperatures are given in K)
#
# column 1: WAVELENGTH (ANGSTROM), Wavelength in Angstrom
# column 2: FLUX (ERG/CM2/S/A), Flux in erg/cm2/s/A
         3000.2           16550 
         3000.5           17010 
         3000.8           17890 
         3001.1           19160 
         3001.4           20890 
         3001.7           23100 
           3002           26100 
         3002.3           30260 
         3002.6           36250 
         3002.9           44740 
         3003.2           56320 
         3003.5           71220 
         3003.8           89110 
         3004.1          109000 
         3004.4          129300 
         3004.7          147900 
           3005          162700 
         3005.3          171700 
         3005.6          173500 
         3005.9          167600 
         3006.2          154800 
         3006.5          136600 
         3006.8          115500 
         3007.1           94270 
         3007.4           75570 
         3007.7           61350 
           3008           52710 
         3008.3           50060 
         3008.6           53160 
         3008.9           61480 
         3009.2           74100 
         3009.5           89760 
         3009.8          106800 
         3010.1          123300 
         3010.4          137300 
         3010.7          147000 
           3011          152200 
         3011.3          153300 
         3011.6          151800 
         3011.9          149600 
         3012.2          148200 
         3012.5          148100 
         3012.8          149200 
         3013.1          150900 
         3013.4          152300 
         3013.7          152700 
           3014          151900 
         3014.3          149500 
         3014.6          145500 
         3014.9          140100 
         3015.2          133400 
         3015.5          125700 
         3015.8          117300 
         3016.1          108300 
         3016.4           98790 
         3016.7           88840 
           3017           78540 
         3017.3           68170 
         3017.6           58140 
         3017.9           48870 
         3018.2           40560 
         3018.5           33330 
         3018.8           27060 
         3019.1           21670 
         3019.4           17120 
         3019.7           13430 
           3020           10700 
         3020.3            9069 
         3020.6            8730 
         3020.9            9823 
         3021.2           12430 
         3021.5           16510 
         3021.8           21850 
         3022.1           28100 
         3022.4           34750 
         3022.7           41220 
           3023           46970 
         3023.3           51610 
         3023.6           54920 
         3023.9           56820 
         3024.2           57340 
         3024.5           56740 
         3024.8           55640 
         3025.1           55060 
         3025.4           56440 
         3025.7           61280 
           3026           70850 
         3026.3           85590 
         3026.6          104900 
         3026.9          127300 
         3027.2          150400 
         3027.5          171900 
         3027.8          189500 
         3028.1          201500 
         3028.4          207000 
         3028.7          206500 
           3029          200900 
         3029.3          192100 
         3029.6          181800 
         3029.9          171600 
         3030.2          162700 
         3030.5          155800 
         3030.8          151600 
         3031.1          150900 
         3031.4          154500 
         3031.7          162100 
           3032          173100 
         3032.3          185800 
         3032.6          198400 
         3032.9          209400 
         3033.2          217900 
         3033.5          223900 
         3033.8          227800 
         3034.1          230000 
         3034.4          230500 
         3034.7          228500 
           3035          222700 
         3035.3          212000 
         3035.6          195600 
         3035.9          173800 
         3036.2          148600 
         3036.5          122500 
         3036.8           98800 
         3037.1           80320 
         3037.4           69070 
         3037.7           65920 
           3038           70300 
         3038.3           80760 
         3038.6           95100 
         3038.9          110900 
         3039.2          125800 
         3039.5          138100 
         3039.8          146500 
         3040.1          150500 
         3040.4          150300 
         3040.7          146600 
           3041          140500 
         3041.3          133600 
         3041.6          127700 
         3041.9          124700 
         3042.2          125700 
         3042.5          130800 
         3042.8          139200 
         3043.1          148900 
         3043.4          157700 
         3043.7          164100 
           3044          167100 
         3044.3          166800 
         3044.6          163600 
         3044.9          158300 
         3045.2          151100 
         3045.5          142100 
         3045.8          131000 
         3046.1          117800 
         3046.4          103200 
         3046.7           88520 
           3047           75600 
         3047.3           66550 
         3047.6           63030 
         3047.9           65820 
         3048.2           74520 
         3048.5           87630 
         3048.8          102900 
         3049.1          117700 
         3049.4          130400 
         3049.7          140200 
           3050          148300 
         3050.3          156600 
         3050.6          167500 
         3050.9          182300 
         3051.2          200800 
         3051.5          220500 
         3051.8          237600 
         3052.1          248400 
         3052.4          250100 
         3052.7          242200 
           3053          226400 
         3053.3          206100 
         3053.6          185500 
         3053.9          168600 
         3054.2          157700 
         3054.5          153400 
         3054.8          154300 
         3055.1          157900 
         3055.4          160700 
         3055.7          159800 
           3056          153400 
         3056.3          141000 
         3056.6          123900 
         3056.9          104300 
         3057.2           84720 
         3057.5           67350 
         3057.8           53790 
         3058.1           44840 
         3058.4           40830 
         3058.7           41990 
           3059           48710 
         3059.3           61000 
         3059.6           78760 
         3059.9          101100 
         3060.2          126500 
         3060.5          152700 
         3060.8          177000 
         3061.1          197300 
         3061.4          211900 
         3061.7          219700 
           3062          220800 
         3062.3          215900 
         3062.6          206400 
         3062.9          194000 
         3063.2          180800 
         3063.5          168700 
         3063.8          159000 
         3064.1          152100 
         3064.4          147400 
         3064.7          143500 
           3065          139000 
         3065.3          132500 
         3065.6          123600 
         3065.9          113100 
         3066.2          102600 
         3066.5           94540 
         3066.8           91300 
         3067.1           94750 
         3067.4          105900 
         3067.7          124500 
           3068          149100 
         3068.3          177100 
         3068.6          205300 
         3068.9          230300 
         3069.2          249400 
         3069.5          260800 
         3069.8          264300 
         3070.1          260700 
         3070.4          251400 
         3070.7          238300 
           3071          222500 
         3071.3          205300 
         3071.6          187900 
         3071.9          172200 
         3072.2          159900 
         3072.5          152400 
         3072.8          150400 
         3073.1          152700 
         3073.4          157400 
         3073.7          161500 
           3074          163100 
         3074.3          161200 
         3074.6          157000 
         3074.9          152900 
         3075.2          152000 
         3075.5          156600 
         3075.8          166800 
         3076.1          180800 
         3076.4          195100 
         3076.7          205900 
           3077          210200 
         3077.3          207100 
         3077.6          198000 
         3077.9          186000 
         3078.2          174800 
         3078.5          167900 
         3078.8          167600 
         3079.1          173700 
         3079.4          184900 
         3079.7          198200 
           3080          210300 
         3080.3          218700 
         3080.6          222100 
         3080.9          220400 
         3081.2          214700 
         3081.5          206700 
         3081.8          198500 
         3082.1          191900 
         3082.4          188300 
         3082.7          188800 
           3083          194300 
         3083.3          205500 
         3083.6          222900 
         3083.9          245800 
         3084.2          272600 
         3084.5          300500 
         3084.8          325800 
         3085.1          344700 
         3085.4          353800 
         3085.7          351100 
           3086          336000 
         3086.3          310200 
         3086.6          277000 
         3086.9          241000 
         3087.2          206900 
         3087.5          178400 
         3087.8          158000 
         3088.1          146300 
         3088.4          142500 
         3088.7          144600 
           3089          150100 
         3089.3          157000 
         3089.6          163700 
         3089.9          169700 
         3090.2          174500 
         3090.5          178100 
         3090.8          180500 
         3091.1          181600 
         3091.4          181200 
         3091.7          178500 
           3092          173400 
         3092.3          166600 
         3092.6          159400 
         3092.9          154300 
         3093.2          153600 
         3093.5          158400 
         3093.8          168400 
         3094.1          181400 
         3094.4          194500 
         3094.7          204500 
           3095          209300 
         3095.3          208300 
         3095.6          202500 
         3095.9          194200 
         3096.2          186100 
         3096.5          180500 
         3096.8          178600 
         3097.1          180000 
         3097.4          182900 
         3097.7          184200 
           3098          181100 
         3098.3          171700 
         3098.6          155900 
         3098.9          135100 
         3099.2          112300 
         3099.5           90320 
         3099.8           71770 
         3100.1           58240 
         3100.4           50360 
         3100.7           48430 
           3101           52310 
         3101.3           61900 
         3101.6           77010 
         3101.9           97200 
         3102.2          121200 
         3102.5          147200 
         3102.8          172500 
         3103.1          194700 
         3103.4          211600 
         3103.7          222100 
           3104          226000 
         3104.3          224300 
         3104.6          219000 
         3104.9          212600 
         3105.2          208100 
         3105.5          208000 
         3105.8          214000 
         3106.1          226200 
         3106.4          243600 
         3106.7          264000 
           3107          284900 
         3107.3          303700 
         3107.6          318600 
         3107.9          328400 
         3108.2          332400 
         3108.5          330300 
         3108.8          322200 
         3109.1          309300 
         3109.4          293400 
         3109.7          277300 
           3110          264500 
         3110.3          258300 
         3110.6          260300 
         3110.9          270500 
         3111.2          286600 
         3111.5          305200 
         3111.8          321900 
         3112.1          333300 
         3112.4          337500 
         3112.7          333600 
           3113          323100 
         3113.3          308400 
         3113.6          292900 
         3113.9          279300 
         3114.2          269500 
         3114.5          264400 
         3114.8          263000 
         3115.1          263700 
         3115.4          264600 
         3115.7          263800 
           3116          259800 
         3116.3          252200 
         3116.6          241300 
         3116.9          227700 
         3117.2          212800 
         3117.5          197700 
         3117.8          183900 
         3118.1          172600 
         3118.4          164200 
         3118.7          158900 
           3119          156400 
         3119.3          156500 
         3119.6          159100 
         3119.9          164000 
         3120.2          171000 
         3120.5          179300 
         3120.8          187800 
         3121.1          195300 
         3121.4          200900 
         3121.7          204900 
           3122          208000 
         3122.3          211500 
         3122.6          216200 
         3122.9          222500 
         3123.2          229500 
         3123.5          235600 
         3123.8          238700 
         3124.1          237400 
         3124.4          231400 
         3124.7          222500 
           3125          213900 
         3125.3          209400 
         3125.6          212100 
         3125.9          223200 
         3126.2          241400 
         3126.5          263400 
         3126.8          284500 
         3127.1          300600 
         3127.4          308600 
         3127.7          307800 
           3128          299300 
         3128.3          285700 
         3128.6          270000 
         3128.9          254500 
         3129.2          240500 
         3129.5          228300 
         3129.8          217900 
         3130.1          209000 
         3130.4          201800 
         3130.7          196500 
           3131          192900 
         3131.3          190600 
         3131.6          188600 
         3131.9          185800 
         3132.2          181800 
         3132.5          176600 
         3132.8          170800 
         3133.1          165900 
         3133.4          163500 
         3133.7          165400 
           3134          172800 
         3134.3          185600 
         3134.6          202800 
         3134.9          221700 
         3135.2          239600 
         3135.5          254000 
         3135.8          264100 
         3136.1          270100 
         3136.4          273700 
         3136.7          276800 
           3137          280600 
         3137.3          285300 
         3137.6          290200 
         3137.9          294400 
         3138.2          297200 
         3138.5          298600 
         3138.8          299000 
         3139.1          299700 
         3139.4          301900 
         3139.7          306600 
           3140          314300 
         3140.3          324000 
         3140.6          333700 
         3140.9          340500 
         3141.2          341500 
         3141.5          334700 
         3141.8          319500 
         3142.1          297100 
         3142.4          269400 
         3142.7          239000 
           3143          208500 
         3143.3          180100 
         3143.6          155900 
         3143.9          137300 
         3144.2          125400 
         3144.5          120700 
         3144.8          122800 
         3145.1          130600 
         3145.4          142000 
         3145.7          154600 
           3146          166500 
         3146.3          176600 
         3146.6          184900 
         3146.9          192900 
         3147.2          202600 
         3147.5          215500 
         3147.8          232400 
         3148.1          252900 
         3148.4          275200 
         3148.7          297000 
           3149          316700 
         3149.3          333200 
         3149.6          346200 
         3149.9          356000 
         3150.2          362600 
         3150.5          365500 
         3150.8          364500 
         3151.1          359900 
         3151.4          352600 
         3151.7          344600 
           3152          337800 
         3152.3          333400 
         3152.6          331600 
         3152.9          330800 
         3153.2          329300 
         3153.5          324900 
         3153.8          317100 
         3154.1          306300 
         3154.4          294300 
         3154.7          283000 
           3155          273800 
         3155.3          267100 
         3155.6          262600 
         3155.9          258700 
         3156.2          253900 
         3156.5          246600 
         3156.8          236200 
         3157.1          222900 
         3157.4          207900 
         3157.7          192900 
           3158          179800 
         3158.3          169800 
         3158.6          163500 
         3158.9          160800 
         3159.2          160400 
         3159.5          160400 
         3159.8          158700 
         3160.1          154100 
         3160.4          146400 
         3160.7          136500 
           3161          126900 
         3161.3          120100 
         3161.6          118800 
         3161.9          124600 
         3162.2          137800 
         3162.5          157400 
         3162.8          180800 
         3163.1          204600 
         3163.4          225100 
         3163.7          239500 
           3164          246600 
         3164.3          247000 
         3164.6          243200 
         3164.9          238200 
         3165.2          234700 
         3165.5          234500 
         3165.8          237800 
         3166.1          243500 
         3166.4          249500 
         3166.7          253100 
           3167          252400 
         3167.3          246300 
         3167.6          235900 
         3167.9          223500 
         3168.2          212800 
         3168.5          207500 
         3168.8          210200 
         3169.1          221500 
         3169.4          240100 
         3169.7          263400 
           3170          288200 
         3170.3          312100 
         3170.6          333500 
         3170.9          352200 
         3171.2          368700 
         3171.5          383400 
         3171.8          396400 
         3172.1          406700 
         3172.4          413200 
         3172.7          414400 
           3173          409900 
         3173.3          400500 
         3173.6          388100 
         3173.9          375000 
         3174.2          364100 
         3174.5          357500 
         3174.8          357100 
         3175.1          363000 
         3175.4          374200 
         3175.7          387700 
           3176          399900 
         3176.3          406900 
         3176.6          405700 
         3176.9          395300 
         3177.2          376300 
         3177.5          351200 
         3177.8          322600 
         3178.1          293500 
