# Granada HRES Library
# atmosphere = Spectrum  (atmosphere model used)
# feh = -5  (value for [Fe/H] for the model.)
# logg = 0.5 log(cm/s2) (value for Log(G) for the model.)
# teff = 5750 K (value for the effective temperature for the model. Temperatures are given in K)
#
# column 1: WAVELENGTH (ANGSTROM), Wavelength in Angstrom
# column 2: FLUX (ERG/CM2/S/A), Flux in erg/cm2/s/A
         3000.2        1.256e+6 
         3000.5        1.239e+6 
         3000.8         1.22e+6 
         3001.1        1.199e+6 
         3001.4        1.175e+6 
         3001.7        1.149e+6 
           3002        1.124e+6 
         3002.3        1.108e+6 
         3002.6        1.105e+6 
         3002.9        1.121e+6 
         3003.2         1.16e+6 
         3003.5         1.22e+6 
         3003.8        1.299e+6 
         3004.1        1.389e+6 
         3004.4        1.482e+6 
         3004.7        1.568e+6 
           3005        1.642e+6 
         3005.3        1.696e+6 
         3005.6        1.727e+6 
         3005.9        1.734e+6 
         3006.2        1.718e+6 
         3006.5        1.684e+6 
         3006.8        1.635e+6 
         3007.1        1.579e+6 
         3007.4        1.522e+6 
         3007.7        1.472e+6 
           3008        1.436e+6 
         3008.3        1.419e+6 
         3008.6        1.426e+6 
         3008.9        1.454e+6 
         3009.2        1.502e+6 
         3009.5        1.562e+6 
         3009.8        1.625e+6 
         3010.1        1.682e+6 
         3010.4        1.727e+6 
         3010.7        1.754e+6 
           3011        1.764e+6 
         3011.3        1.758e+6 
         3011.6        1.742e+6 
         3011.9         1.72e+6 
         3012.2        1.696e+6 
         3012.5        1.673e+6 
         3012.8        1.652e+6 
         3013.1        1.634e+6 
         3013.4        1.619e+6 
         3013.7        1.606e+6 
           3014        1.594e+6 
         3014.3        1.582e+6 
         3014.6        1.569e+6 
         3014.9        1.557e+6 
         3015.2        1.546e+6 
         3015.5        1.538e+6 
         3015.8        1.536e+6 
         3016.1        1.538e+6 
         3016.4        1.545e+6 
         3016.7        1.552e+6 
           3017        1.556e+6 
         3017.3        1.554e+6 
         3017.6        1.543e+6 
         3017.9        1.521e+6 
         3018.2        1.487e+6 
         3018.5         1.44e+6 
         3018.8        1.381e+6 
         3019.1        1.312e+6 
         3019.4        1.237e+6 
         3019.7        1.164e+6 
           3020        1.102e+6 
         3020.3        1.063e+6 
         3020.6        1.056e+6 
         3020.9        1.089e+6 
         3021.2        1.159e+6 
         3021.5        1.259e+6 
         3021.8        1.376e+6 
         3022.1        1.493e+6 
         3022.4        1.596e+6 
         3022.7        1.672e+6 
           3023        1.717e+6 
         3023.3        1.732e+6 
         3023.6         1.72e+6 
         3023.9        1.688e+6 
         3024.2        1.643e+6 
         3024.5        1.591e+6 
         3024.8        1.538e+6 
         3025.1        1.491e+6 
         3025.4        1.456e+6 
         3025.7         1.44e+6 
           3026        1.449e+6 
         3026.3        1.483e+6 
         3026.6        1.538e+6 
         3026.9        1.605e+6 
         3027.2        1.677e+6 
         3027.5        1.742e+6 
         3027.8        1.792e+6 
         3028.1        1.821e+6 
         3028.4        1.828e+6 
         3028.7        1.813e+6 
           3029         1.78e+6 
         3029.3        1.734e+6 
         3029.6        1.682e+6 
         3029.9        1.632e+6 
         3030.2        1.587e+6 
         3030.5        1.554e+6 
         3030.8        1.534e+6 
         3031.1        1.528e+6 
         3031.4        1.536e+6 
         3031.7        1.555e+6 
           3032        1.581e+6 
         3032.3        1.608e+6 
         3032.6        1.631e+6 
         3032.9        1.649e+6 
         3033.2        1.663e+6 
         3033.5        1.674e+6 
         3033.8        1.686e+6 
         3034.1        1.701e+6 
         3034.4         1.72e+6 
         3034.7        1.738e+6 
           3035        1.752e+6 
         3035.3        1.753e+6 
         3035.6        1.736e+6 
         3035.9        1.699e+6 
         3036.2        1.643e+6 
         3036.5        1.574e+6 
         3036.8        1.501e+6 
         3037.1        1.435e+6 
         3037.4        1.387e+6 
         3037.7        1.361e+6 
           3038        1.362e+6 
         3038.3        1.387e+6 
         3038.6        1.431e+6 
         3038.9        1.485e+6 
         3039.2        1.542e+6 
         3039.5        1.592e+6 
         3039.8        1.628e+6 
         3040.1        1.646e+6 
         3040.4        1.645e+6 
         3040.7        1.626e+6 
           3041        1.596e+6 
         3041.3        1.559e+6 
         3041.6        1.522e+6 
         3041.9        1.492e+6 
         3042.2        1.471e+6 
         3042.5        1.461e+6 
         3042.8        1.458e+6 
         3043.1        1.461e+6 
         3043.4        1.466e+6 
         3043.7        1.471e+6 
           3044        1.477e+6 
         3044.3        1.486e+6 
         3044.6        1.499e+6 
         3044.9        1.517e+6 
         3045.2        1.538e+6 
         3045.5        1.558e+6 
         3045.8        1.572e+6 
         3046.1        1.576e+6 
         3046.4        1.568e+6 
         3046.7        1.549e+6 
           3047        1.525e+6 
         3047.3        1.502e+6 
         3047.6        1.487e+6 
         3047.9        1.485e+6 
         3048.2        1.499e+6 
         3048.5        1.526e+6 
         3048.8        1.564e+6 
         3049.1        1.609e+6 
         3049.4        1.656e+6 
         3049.7        1.704e+6 
           3050        1.752e+6 
         3050.3        1.801e+6 
         3050.6        1.851e+6 
         3050.9        1.901e+6 
         3051.2         1.95e+6 
         3051.5        1.991e+6 
         3051.8        2.017e+6 
         3052.1        2.024e+6 
         3052.4        2.009e+6 
         3052.7        1.974e+6 
           3053        1.923e+6 
         3053.3        1.865e+6 
         3053.6         1.81e+6 
         3053.9        1.764e+6 
         3054.2        1.734e+6 
         3054.5        1.719e+6 
         3054.8        1.716e+6 
         3055.1        1.719e+6 
         3055.4        1.717e+6 
         3055.7        1.704e+6 
           3056        1.675e+6 
         3056.3        1.628e+6 
         3056.6         1.57e+6 
         3056.9        1.508e+6 
         3057.2        1.451e+6 
         3057.5        1.407e+6 
         3057.8         1.38e+6 
         3058.1        1.369e+6 
         3058.4        1.371e+6 
         3058.7        1.385e+6 
           3059        1.408e+6 
         3059.3        1.443e+6 
         3059.6        1.488e+6 
         3059.9        1.544e+6 
         3060.2        1.604e+6 
         3060.5        1.662e+6 
         3060.8        1.711e+6 
         3061.1        1.743e+6 
         3061.4        1.756e+6 
         3061.7         1.75e+6 
           3062        1.727e+6 
         3062.3        1.694e+6 
         3062.6        1.657e+6 
         3062.9        1.621e+6 
         3063.2        1.592e+6 
         3063.5         1.57e+6 
         3063.8        1.557e+6 
         3064.1        1.548e+6 
         3064.4        1.538e+6 
         3064.7        1.522e+6 
           3065        1.498e+6 
         3065.3        1.467e+6 
         3065.6        1.432e+6 
         3065.9        1.401e+6 
         3066.2        1.383e+6 
         3066.5        1.384e+6 
         3066.8        1.408e+6 
         3067.1        1.455e+6 
         3067.4        1.523e+6 
         3067.7        1.604e+6 
           3068        1.692e+6 
         3068.3        1.778e+6 
         3068.6        1.854e+6 
         3068.9        1.911e+6 
         3069.2        1.946e+6 
         3069.5        1.953e+6 
         3069.8        1.935e+6 
         3070.1        1.893e+6 
         3070.4        1.834e+6 
         3070.7        1.764e+6 
           3071        1.692e+6 
         3071.3        1.624e+6 
         3071.6        1.566e+6 
         3071.9        1.525e+6 
         3072.2        1.505e+6 
         3072.5        1.508e+6 
         3072.8        1.531e+6 
         3073.1        1.567e+6 
         3073.4        1.606e+6 
         3073.7        1.636e+6 
           3074         1.65e+6 
         3074.3        1.643e+6 
         3074.6        1.622e+6 
         3074.9        1.595e+6 
         3075.2        1.577e+6 
         3075.5        1.576e+6 
         3075.8        1.595e+6 
         3076.1         1.63e+6 
         3076.4         1.67e+6 
         3076.7        1.702e+6 
           3077        1.716e+6 
         3077.3        1.709e+6 
         3077.6        1.683e+6 
         3077.9        1.649e+6 
         3078.2        1.618e+6 
         3078.5        1.601e+6 
         3078.8        1.605e+6 
         3079.1         1.63e+6 
         3079.4         1.67e+6 
         3079.7        1.713e+6 
           3080         1.75e+6 
         3080.3        1.772e+6 
         3080.6        1.775e+6 
         3080.9        1.761e+6 
         3081.2        1.734e+6 
         3081.5        1.701e+6 
         3081.8         1.67e+6 
         3082.1        1.649e+6 
         3082.4        1.643e+6 
         3082.7        1.658e+6 
           3083        1.694e+6 
         3083.3        1.749e+6 
         3083.6         1.82e+6 
         3083.9        1.899e+6 
         3084.2        1.976e+6 
         3084.5        2.043e+6 
         3084.8        2.093e+6 
         3085.1        2.117e+6 
         3085.4        2.114e+6 
         3085.7        2.082e+6 
           3086        2.024e+6 
         3086.3        1.947e+6 
         3086.6        1.856e+6 
         3086.9        1.763e+6 
         3087.2        1.676e+6 
         3087.5        1.605e+6 
         3087.8        1.555e+6 
         3088.1        1.531e+6 
         3088.4        1.529e+6 
         3088.7        1.547e+6 
           3089        1.577e+6 
         3089.3        1.614e+6 
         3089.6        1.654e+6 
         3089.9        1.694e+6 
         3090.2         1.73e+6 
         3090.5        1.761e+6 
         3090.8        1.781e+6 
         3091.1        1.788e+6 
         3091.4        1.779e+6 
         3091.7        1.753e+6 
           3092        1.713e+6 
         3092.3        1.667e+6 
         3092.6        1.624e+6 
         3092.9        1.593e+6 
         3093.2        1.582e+6 
         3093.5        1.592e+6 
         3093.8        1.619e+6 
         3094.1        1.655e+6 
         3094.4        1.689e+6 
         3094.7        1.712e+6 
           3095        1.717e+6 
         3095.3        1.703e+6 
         3095.6        1.673e+6 
         3095.9        1.634e+6 
         3096.2        1.594e+6 
         3096.5        1.563e+6 
         3096.8        1.546e+6 
         3097.1        1.547e+6 
         3097.4        1.561e+6 
         3097.7         1.58e+6 
           3098        1.596e+6 
         3098.3        1.599e+6 
         3098.6        1.583e+6 
         3098.9         1.55e+6 
         3099.2        1.501e+6 
         3099.5        1.445e+6 
         3099.8        1.391e+6 
         3100.1        1.346e+6 
         3100.4        1.318e+6 
         3100.7         1.31e+6 
           3101        1.326e+6 
         3101.3        1.362e+6 
         3101.6        1.416e+6 
         3101.9        1.482e+6 
         3102.2        1.553e+6 
         3102.5        1.621e+6 
         3102.8        1.678e+6 
         3103.1        1.716e+6 
         3103.4        1.734e+6 
         3103.7        1.729e+6 
           3104        1.705e+6 
         3104.3         1.67e+6 
         3104.6        1.633e+6 
         3104.9        1.602e+6 
         3105.2        1.586e+6 
         3105.5         1.59e+6 
         3105.8        1.614e+6 
         3106.1        1.657e+6 
         3106.4        1.711e+6 
         3106.7         1.77e+6 
           3107        1.827e+6 
         3107.3        1.877e+6 
         3107.6        1.914e+6 
         3107.9        1.936e+6 
         3108.2        1.942e+6 
         3108.5        1.933e+6 
         3108.8        1.911e+6 
         3109.1         1.88e+6 
         3109.4        1.845e+6 
         3109.7        1.813e+6 
           3110        1.791e+6 
         3110.3        1.784e+6 
         3110.6        1.795e+6 
         3110.9        1.822e+6 
         3111.2        1.863e+6 
         3111.5        1.911e+6 
         3111.8         1.96e+6 
         3112.1        2.004e+6 
         3112.4        2.036e+6 
         3112.7        2.053e+6 
           3113        2.054e+6 
         3113.3         2.04e+6 
         3113.6        2.015e+6 
         3113.9        1.986e+6 
         3114.2        1.958e+6 
         3114.5        1.938e+6 
         3114.8        1.927e+6 
         3115.1        1.926e+6 
         3115.4        1.932e+6 
         3115.7        1.936e+6 
           3116        1.934e+6 
         3116.3        1.919e+6 
         3116.6        1.888e+6 
         3116.9        1.841e+6 
         3117.2        1.782e+6 
         3117.5        1.715e+6 
         3117.8        1.648e+6 
         3118.1        1.585e+6 
         3118.4        1.532e+6 
         3118.7        1.492e+6 
           3119        1.463e+6 
         3119.3        1.446e+6 
         3119.6         1.44e+6 
         3119.9        1.443e+6 
         3120.2        1.456e+6 
         3120.5        1.477e+6 
         3120.8        1.507e+6 
         3121.1        1.544e+6 
         3121.4        1.588e+6 
         3121.7        1.639e+6 
           3122        1.695e+6 
         3122.3        1.754e+6 
         3122.6        1.812e+6 
         3122.9        1.863e+6 
         3123.2          1.9e+6 
         3123.5        1.915e+6 
         3123.8        1.905e+6 
         3124.1         1.87e+6 
         3124.4        1.819e+6 
         3124.7        1.764e+6 
           3125         1.72e+6 
         3125.3        1.703e+6 
         3125.6         1.72e+6 
         3125.9        1.769e+6 
         3126.2        1.842e+6 
         3126.5        1.923e+6 
         3126.8        1.995e+6 
         3127.1        2.044e+6 
         3127.4        2.061e+6 
         3127.7        2.045e+6 
           3128        2.001e+6 
         3128.3         1.94e+6 
         3128.6         1.87e+6 
         3128.9          1.8e+6 
         3129.2        1.733e+6 
         3129.5        1.672e+6 
         3129.8        1.616e+6 
         3130.1        1.566e+6 
         3130.4        1.522e+6 
         3130.7        1.486e+6 
           3131         1.46e+6 
         3131.3        1.444e+6 
         3131.6        1.438e+6 
         3131.9         1.44e+6 
         3132.2        1.449e+6 
         3132.5        1.463e+6 
         3132.8         1.48e+6 
         3133.1        1.501e+6 
         3133.4        1.527e+6 
         3133.7        1.558e+6 
           3134        1.594e+6 
         3134.3        1.637e+6 
         3134.6        1.683e+6 
         3134.9        1.731e+6 
         3135.2        1.778e+6 
         3135.5        1.823e+6 
         3135.8        1.865e+6 
         3136.1        1.905e+6 
         3136.4        1.944e+6 
         3136.7        1.985e+6 
           3137        2.027e+6 
         3137.3        2.067e+6 
         3137.6        2.101e+6 
         3137.9        2.126e+6 
         3138.2        2.137e+6 
         3138.5        2.135e+6 
         3138.8        2.123e+6 
         3139.1        2.105e+6 
         3139.4        2.088e+6 
         3139.7        2.076e+6 
           3140        2.072e+6 
         3140.3        2.074e+6 
         3140.6        2.078e+6 
         3140.9        2.077e+6 
         3141.2        2.063e+6 
         3141.5        2.033e+6 
         3141.8        1.984e+6 
         3142.1        1.917e+6 
         3142.4        1.839e+6 
         3142.7        1.752e+6 
           3143        1.663e+6 
         3143.3        1.577e+6 
         3143.6        1.498e+6 
         3143.9         1.43e+6 
         3144.2        1.379e+6 
         3144.5        1.349e+6 
         3144.8        1.344e+6 
         3145.1        1.366e+6 
         3145.4        1.412e+6 
         3145.7        1.477e+6 
           3146        1.553e+6 
         3146.3        1.633e+6 
         3146.6        1.709e+6 
         3146.9        1.777e+6 
         3147.2        1.836e+6 
         3147.5        1.886e+6 
         3147.8         1.93e+6 
         3148.1        1.969e+6 
         3148.4        2.003e+6 
         3148.7        2.034e+6 
           3149        2.061e+6 
         3149.3        2.085e+6 
         3149.6        2.107e+6 
         3149.9        2.127e+6 
         3150.2        2.144e+6 
         3150.5        2.156e+6 
         3150.8        2.161e+6 
         3151.1        2.161e+6 
         3151.4        2.155e+6 
         3151.7        2.145e+6 
           3152        2.134e+6 
         3152.3        2.122e+6 
         3152.6        2.107e+6 
         3152.9        2.089e+6 
         3153.2        2.065e+6 
         3153.5        2.033e+6 
         3153.8        1.995e+6 
         3154.1        1.954e+6 
         3154.4        1.914e+6 
         3154.7        1.879e+6 
           3155        1.855e+6 
         3155.3        1.842e+6 
         3155.6         1.84e+6 
         3155.9        1.846e+6 
         3156.2        1.856e+6 
         3156.5        1.862e+6 
         3156.8        1.858e+6 
         3157.1        1.841e+6 
         3157.4        1.809e+6 
         3157.7        1.766e+6 
           3158        1.717e+6 
         3158.3         1.67e+6 
         3158.6        1.631e+6 
         3158.9        1.603e+6 
         3159.2        1.584e+6 
         3159.5        1.571e+6 
         3159.8        1.556e+6 
         3160.1        1.533e+6 
         3160.4        1.499e+6 
         3160.7        1.458e+6 
           3161        1.417e+6 
         3161.3        1.386e+6 
         3161.6        1.374e+6 
         3161.9        1.389e+6 
         3162.2        1.433e+6 
         3162.5        1.501e+6 
         3162.8        1.587e+6 
         3163.1        1.676e+6 
         3163.4        1.757e+6 
         3163.7         1.82e+6 
           3164        1.859e+6 
         3164.3        1.876e+6 
         3164.6        1.876e+6 
         3164.9        1.867e+6 
         3165.2        1.857e+6 
         3165.5        1.852e+6 
         3165.8        1.854e+6 
         3166.1         1.86e+6 
         3166.4        1.867e+6 
         3166.7        1.867e+6 
           3167        1.859e+6 
         3167.3        1.841e+6 
         3167.6        1.817e+6 
         3167.9        1.795e+6 
         3168.2        1.783e+6 
         3168.5        1.788e+6 
         3168.8        1.813e+6 
         3169.1        1.857e+6 
         3169.4        1.914e+6 
         3169.7        1.977e+6 
           3170        2.039e+6 
         3170.3        2.095e+6 
         3170.6        2.143e+6 
         3170.9        2.182e+6 
         3171.2        2.215e+6 
         3171.5        2.241e+6 
         3171.8        2.262e+6 
         3172.1        2.278e+6 
         3172.4        2.286e+6 
         3172.7        2.286e+6 
           3173        2.277e+6 
         3173.3        2.261e+6 
         3173.6         2.24e+6 
         3173.9        2.218e+6 
         3174.2          2.2e+6 
         3174.5        2.189e+6 
         3174.8        2.187e+6 
         3175.1        2.194e+6 
         3175.4        2.208e+6 
         3175.7        2.224e+6 
           3176        2.235e+6 
         3176.3        2.234e+6 
         3176.6        2.215e+6 
         3176.9        2.174e+6 
         3177.2        2.114e+6 
         3177.5        2.038e+6 
         3177.8        1.951e+6 
         3178.1         1.86e+6 
