# Granada HRES Library
# atmosphere = Spectrum  (atmosphere model used)
# feh = 3  (value for [Fe/H] for the model.)
# logg = 0 log(cm/s2) (value for Log(G) for the model.)
# teff = 5500 K (value for the effective temperature for the model. Temperatures are given in K)
#
# column 1: WAVELENGTH (ANGSTROM), Wavelength in Angstrom
# column 2: FLUX (ERG/CM2/S/A), Flux in erg/cm2/s/A
         3000.2          272300 
         3000.5          265800 
         3000.8          260200 
         3001.1          255600 
         3001.4          251700 
         3001.7          249300 
           3002          249300 
         3002.3          254200 
         3002.6          266400 
         3002.9          288900 
         3003.2          323700 
         3003.5          371400 
         3003.8          430900 
         3004.1          499000 
         3004.4          570400 
         3004.7          639100 
           3005          698400 
         3005.3          742500 
         3005.6          767000 
         3005.9          770000 
         3006.2          752400 
         3006.5          717500 
         3006.8          670900 
         3007.1          619700 
         3007.4          571000 
         3007.7          531200 
           3008          505400 
         3008.3          496300 
         3008.6          504900 
         3008.9          529600 
         3009.2          567100 
         3009.5          612400 
         3009.8          659400 
         3010.1          702400 
         3010.4          736200 
         3010.7          758100 
           3011          767100 
         3011.3          765500 
         3011.6          756900 
         3011.9          746100 
         3012.2          736500 
         3012.5          730500 
         3012.8          728600 
         3013.1          729800 
         3013.4          732500 
         3013.7          734900 
           3014          735200 
         3014.3          732800 
         3014.6          727000 
         3014.9          718500 
         3015.2          707800 
         3015.5          696100 
         3015.8          683700 
         3016.1          670500 
         3016.4          655200 
         3016.7          636800 
           3017          614200 
         3017.3          587100 
         3017.6          555600 
         3017.9          520000 
         3018.2          481000 
         3018.5          439000 
         3018.8          395000 
         3019.1          350200 
         3019.4          307000 
         3019.7          268600 
           3020          239100 
         3020.3          222600 
         3020.6          223100 
         3020.9          243000 
         3021.2          282000 
         3021.5          337000 
         3021.8          402600 
         3022.1          471500 
         3022.4          536500 
         3022.7          591100 
           3023          631400 
         3023.3          656100 
         3023.6          665700 
         3023.9          662400 
         3024.2          648800 
         3024.5          628100 
         3024.8          604100 
         3025.1          581700 
         3025.4          566600 
         3025.7          564600 
           3026          579900 
         3026.3          613800 
         3026.6          663700 
         3026.9          723500 
         3027.2          785100 
         3027.5          840100 
         3027.8          881400 
         3028.1          904200 
         3028.4          907000 
         3028.7          891200 
           3029          860700 
         3029.3          821100 
         3029.6          778000 
         3029.9          736400 
         3030.2          700200 
         3030.5          672200 
         3030.8          654100 
         3031.1          647100 
         3031.4          651300 
         3031.7          665500 
           3032          686900 
         3032.3          711700 
         3032.6          736200 
         3032.9          758000 
         3033.2          776600 
         3033.5          792500 
         3033.8          807700 
         3034.1          823400 
         3034.4          839300 
         3034.7          852600 
           3035          858500 
         3035.3          851600 
         3035.6          827300 
         3035.9          784100 
         3036.2          724500 
         3036.5          654800 
         3036.8          584300 
         3037.1          522800 
         3037.4          478500 
         3037.7          456200 
           3038          456800 
         3038.3          477600 
         3038.6          513100 
         3038.9          556300 
         3039.2          600800 
         3039.5          640800 
         3039.8          671900 
         3040.1          691400 
         3040.4          698800 
         3040.7          695100 
           3041          682900 
         3041.3          666000 
         3041.6          648900 
         3041.9          635700 
         3042.2          629400 
         3042.5          630800 
         3042.8          638500 
         3043.1          649200 
         3043.4          659700 
         3043.7          667300 
           3044          671100 
         3044.3          671800 
         3044.6          670600 
         3044.9          668200 
         3045.2          664200 
         3045.5          656800 
         3045.8          643600 
         3046.1          622400 
         3046.4          593500 
         3046.7          560300 
           3047          528000 
         3047.3          503500 
         3047.6          492600 
         3047.9          498600 
         3048.2          520800 
         3048.5          555500 
         3048.8          597300 
         3049.1          640300 
         3049.4          679900 
         3049.7          715100 
           3050          747500 
         3050.3          780700 
         3050.6          818300 
         3050.9          861700 
         3051.2          908600 
         3051.5          952900 
         3051.8          987000 
         3052.1        1.004e+6 
         3052.4          997800 
         3052.7          969900 
           3053          924400 
         3053.3          869200 
         3053.6          813900 
         3053.9          766800 
         3054.2          733500 
         3054.5          715600 
         3054.8          710800 
         3055.1          713100 
         3055.4          715300 
         3055.7          710100 
           3056          692600 
         3056.3          661000 
         3056.6          617800 
         3056.9          568000 
         3057.2          518100 
         3057.5          474200 
         3057.8          440900 
         3058.1          421200 
         3058.4          416200 
         3058.7          427100 
           3059          454100 
         3059.3          497300 
         3059.6          554600 
         3059.9          622200 
         3060.2          694000 
         3060.5          762300 
         3060.8          820000 
         3061.1          861200 
         3061.4          882800 
         3061.7          884800 
           3062          869100 
         3062.3          840000 
         3062.6          802500 
         3062.9          762400 
         3063.2          724500 
         3063.5          692100 
         3063.8          666900 
         3064.1          647300 
         3064.4          630100 
         3064.7          611900 
           3065          589100 
         3065.3          561200 
         3065.6          530400 
         3065.9          501500 
         3066.2          480700 
         3066.5          473800 
         3066.8          485200 
         3067.1          516700 
         3067.4          566700 
         3067.7          631400 
           3068          704600 
         3068.3          779000 
         3068.6          846800 
         3068.9          900800 
         3069.2          935400 
         3069.5          947100 
         3069.8          935800 
         3070.1          903500 
         3070.4          854800 
         3070.7          794800 
           3071          729300 
         3071.3          663900 
         3071.6          603900 
         3071.9          554500 
         3072.2          519400 
         3072.5          501000 
         3072.8          499100 
         3073.1          509400 
         3073.4          526100 
         3073.7          542600 
           3074          553600 
         3074.3          557400 
         3074.6          556300 
         3074.9          555600 
         3075.2          561500 
         3075.5          577600 
         3075.8          603900 
         3076.1          635200 
         3076.4          663800 
         3076.7          681400 
           3077          682700 
         3077.3          667400 
         3077.6          639600 
         3077.9          608100 
         3078.2          582500 
         3078.5          571200 
         3078.8          579100 
         3079.1          606500 
         3079.4          648400 
         3079.7          697100 
           3080          743700 
         3080.3          780700 
         3080.6          803600 
         3080.9          811400 
         3081.2          806500 
         3081.5          793600 
         3081.8          779100 
         3082.1          769100 
         3082.4          768300 
         3082.7          780300 
           3083          806600 
         3083.3          847000 
         3083.6          899200 
         3083.9          959000 
         3084.2         1.02e+6 
         3084.5        1.076e+6 
         3084.8         1.12e+6 
         3085.1        1.142e+6 
         3085.4        1.139e+6 
         3085.7        1.108e+6 
           3086        1.049e+6 
         3086.3          966700 
         3086.6          869800 
         3086.9          768500 
         3087.2          673300 
         3087.5          593500 
         3087.8          535400 
         3088.1          501800 
         3088.4          492200 
         3088.7          503000 
           3089          529200 
         3089.3          565400 
         3089.6          606500 
         3089.9          648500 
         3090.2          688100 
         3090.5          722500 
         3090.8          749400 
         3091.1          766600 
         3091.4          772200 
         3091.7          765800 
           3092          748600 
         3092.3          724300 
         3092.6          698800 
         3092.9          679500 
         3093.2          672000 
         3093.5          679000 
         3093.8          698800 
         3094.1          725900 
         3094.4          753000 
         3094.7          772600 
           3095          779900 
         3095.3          773500 
         3095.6          755600 
         3095.9          731200 
         3096.2          706600 
         3096.5          687700 
         3096.8          677500 
         3097.1          675800 
         3097.4          679200 
         3097.7          681500 
           3098          676400 
         3098.3          658800 
         3098.6          627100 
         3098.9          583300 
         3099.2          532400 
         3099.5          480700 
         3099.8          434400 
         3100.1          398600 
         3100.4          376700 
         3100.7          370100 
           3101          379500 
         3101.3          404200 
         3101.6          442900 
         3101.9          492600 
         3102.2          549400 
         3102.5          607200 
         3102.8          660000 
         3103.1          701800 
         3103.4          728800 
         3103.7          739300 
           3104          735300 
         3104.3          721100 
         3104.6          702900 
         3104.9          687400 
         3105.2          680600 
         3105.5          687200 
         3105.8          708800 
         3106.1          744600 
         3106.4          790800 
         3106.7          842600 
           3107          893900 
         3107.3          939600 
         3107.6          975600 
         3107.9          998900 
         3108.2        1.008e+6 
         3108.5        1.002e+6 
         3108.8          982600 
         3109.1          952400 
         3109.4          916100 
         3109.7          880100 
           3110          851700 
         3110.3          837600 
         3110.6          841400 
         3110.9          863500 
         3111.2          900400 
         3111.5          945400 
         3111.8          990300 
         3112.1        1.028e+6 
         3112.4        1.052e+6 
         3112.7        1.062e+6 
           3113        1.055e+6 
         3113.3        1.037e+6 
         3113.6         1.01e+6 
         3113.9          980900 
         3114.2          953200 
         3114.5          930200 
         3114.8          913700 
         3115.1          903000 
         3115.4          895900 
         3115.7          888800 
           3116          877500 
         3116.3          858700 
         3116.6          830700 
         3116.9          794100 
         3117.2          751200 
         3117.5          705600 
         3117.8          661600 
         3118.1          622800 
         3118.4          591300 
         3118.7          568200 
           3119          553200 
         3119.3          545700 
         3119.6          545400 
         3119.9          552400 
         3120.2          566800 
         3120.5          588400 
         3120.8          616100 
         3121.1          647800 
         3121.4          681900 
         3121.7          716800 
           3122          750800 
         3122.3          782900 
         3122.6          811400 
         3122.9          833600 
         3123.2          846600 
         3123.5          847900 
         3123.8          835700 
         3124.1          811100 
         3124.4          779100 
         3124.7          747300 
           3125          725300 
         3125.3          721900 
         3125.6          742200 
         3125.9          785700 
         3126.2          846300 
         3126.5          912600 
         3126.8          972400 
         3127.1        1.015e+6 
         3127.4        1.033e+6 
         3127.7        1.025e+6 
           3128          995200 
         3128.3          950400 
         3128.6          898100 
         3128.9          844600 
         3129.2          793200 
         3129.5          745100 
         3129.8          700400 
         3130.1          659100 
         3130.4          621800 
         3130.7          589700 
           3131          564200 
         3131.3          545800 
         3131.6          534300 
         3131.9          529400 
         3132.2          530000 
         3132.5          536300 
         3132.8          547800 
         3133.1          565200 
         3133.4          589300 
         3133.7          620300 
           3134          658400 
         3134.3          702400 
         3134.6          749700 
         3134.9          797200 
         3135.2          841300 
         3135.5          879500 
         3135.8          910800 
         3136.1          936000 
         3136.4          957400 
         3136.7          978000 
           3137          999300 
         3137.3        1.021e+6 
         3137.6        1.042e+6 
         3137.9         1.06e+6 
         3138.2        1.072e+6 
         3138.5        1.077e+6 
         3138.8        1.078e+6 
         3139.1        1.076e+6 
         3139.4        1.075e+6 
         3139.7        1.078e+6 
           3140        1.086e+6 
         3140.3        1.097e+6 
         3140.6        1.108e+6 
         3140.9        1.111e+6 
         3141.2        1.101e+6 
         3141.5        1.073e+6 
         3141.8        1.027e+6 
         3142.1          964100 
         3142.4          890100 
         3142.7          810900 
           3143          732100 
         3143.3          659600 
         3143.6          597500 
         3143.9          549900 
         3144.2          519100 
         3144.5          506600 
         3144.8          512800 
         3145.1          535600 
         3145.4          571000 
         3145.7          613600 
           3146          658200 
         3146.3          700200 
         3146.6          737800 
         3146.9          771500 
         3147.2          803400 
         3147.5          836700 
         3147.8          874200 
         3148.1          916100 
         3148.4          961300 
         3148.7        1.008e+6 
           3149        1.053e+6 
         3149.3        1.094e+6 
         3149.6         1.13e+6 
         3149.9         1.16e+6 
         3150.2        1.181e+6 
         3150.5        1.192e+6 
         3150.8        1.192e+6 
         3151.1        1.184e+6 
         3151.4        1.169e+6 
         3151.7        1.151e+6 
           3152        1.133e+6 
         3152.3        1.117e+6 
         3152.6        1.103e+6 
         3152.9        1.088e+6 
         3153.2        1.068e+6 
         3153.5        1.043e+6 
         3153.8        1.011e+6 
         3154.1          975100 
         3154.4          939200 
         3154.7          908300 
           3155          886100 
         3155.3          874400 
         3155.6          871700 
         3155.9          874600 
         3156.2          877400 
         3156.5          873600 
         3156.8          858500 
         3157.1          829700 
         3157.4          788600 
         3157.7          739100 
           3158          687800 
         3158.3          641100 
         3158.6          604000 
         3158.9          578500 
         3159.2          563700 
         3159.5          555300 
         3159.8          547400 
         3160.1          534900 
         3160.4          515500 
         3160.7          490800 
           3161          465800 
         3161.3          447600 
         3161.6          444000 
         3161.9          460800 
         3162.2          499900 
         3162.5          559200 
         3162.8          632300 
         3163.1          709800 
         3163.4          781200 
         3163.7          837700 
           3164          874200 
         3164.3          890600 
         3164.6          890400 
         3164.9          880100 
         3165.2          866200 
         3165.5          853400 
         3165.8          843900 
         3166.1          836700 
         3166.4          828700 
         3166.7          816500 
           3167          797400 
         3167.3          771900 
         3167.6          742800 
         3167.9          716400 
         3168.2          699700 
         3168.5          699100 
         3168.8          717900 
         3169.1          755700 
         3169.4          808400 
         3169.7          870300 
           3170          935500 
         3170.3          998800 
         3170.6        1.057e+6 
         3170.9         1.11e+6 
         3171.2        1.157e+6 
         3171.5        1.197e+6 
         3171.8        1.231e+6 
         3172.1        1.256e+6 
         3172.4        1.271e+6 
         3172.7        1.275e+6 
           3173        1.267e+6 
         3173.3        1.249e+6 
         3173.6        1.225e+6 
         3173.9        1.199e+6 
         3174.2        1.176e+6 
         3174.5        1.161e+6 
         3174.8        1.156e+6 
         3175.1        1.161e+6 
         3175.4        1.173e+6 
         3175.7        1.188e+6 
           3176        1.197e+6 
         3176.3        1.193e+6 
         3176.6        1.171e+6 
         3176.9        1.127e+6 
         3177.2        1.063e+6 
         3177.5          983900 
         3177.8          896000 
         3178.1          806800 
