# Granada HRES Library
# atmosphere = Spectrum  (atmosphere model used)
# feh = 3  (value for [Fe/H] for the model.)
# logg = 1.5 log(cm/s2) (value for Log(G) for the model.)
# teff = 4750 K (value for the effective temperature for the model. Temperatures are given in K)
#
# column 1: WAVELENGTH (ANGSTROM), Wavelength in Angstrom
# column 2: FLUX (ERG/CM2/S/A), Flux in erg/cm2/s/A
         3000.2            3409 
         3000.5            3587 
         3000.8            3844 
         3001.1            4203 
         3001.4            4693 
         3001.7            5392 
           3002            6404 
         3002.3            7892 
         3002.6           10070 
         3002.9           13190 
         3003.2           17460 
         3003.5           22990 
         3003.8           29740 
         3004.1           37370 
         3004.4           45330 
         3004.7           52780 
           3005           58820 
         3005.3           62570 
         3005.6           63440 
         3005.9           61230 
         3006.2           56230 
         3006.5           49180 
         3006.8           41070 
         3007.1           32970 
         3007.4           25830 
         3007.7           20320 
           3008           16860 
         3008.3           15600 
         3008.6           16520 
         3008.9           19440 
         3009.2           24050 
         3009.5           29850 
         3009.8           36170 
         3010.1           42280 
         3010.4           47430 
         3010.7           51140 
           3011           53220 
         3011.3           53930 
         3011.6           53790 
         3011.9           53420 
         3012.2           53290 
         3012.5           53620 
         3012.8           54310 
         3013.1           55050 
         3013.4           55440 
         3013.7           55140 
           3014           53940 
         3014.3           51780 
         3014.6           48740 
         3014.9           45010 
         3015.2           40840 
         3015.5           36490 
         3015.8           32160 
         3016.1           28020 
         3016.4           24170 
         3016.7           20650 
           3017           17490 
         3017.3           14700 
         3017.6           12270 
         3017.9           10160 
         3018.2            8371 
         3018.5            6833 
         3018.8            5541 
         3019.1            4443 
         3019.4            3536 
         3019.7            2816 
           3020            2300 
         3020.3            2005 
         3020.6            1950 
         3020.9            2155 
         3021.2            2618 
         3021.5            3315 
         3021.8            4202 
         3022.1            5209 
         3022.4            6255 
         3022.7            7252 
           3023            8127 
         3023.3            8828 
         3023.6            9334 
         3023.9            9649 
         3024.2            9824 
         3024.5            9983 
         3024.8           10320 
         3025.1           11110 
         3025.4           12670 
         3025.7           15430 
           3026           19790 
         3026.3           26040 
         3026.6           34270 
         3026.9           44310 
         3027.2           55600 
         3027.5           67290 
         3027.8           78260 
         3028.1           87370 
         3028.4           93660 
         3028.7           96660 
           3029           96390 
         3029.3           93440 
         3029.6           88850 
         3029.9           83780 
         3030.2           79470 
         3030.5           77040 
         3030.8           77540 
         3031.1           81760 
         3031.4           90130 
         3031.7          102500 
           3032          117900 
         3032.3          134900 
         3032.6          151500 
         3032.9          166000 
         3033.2          176700 
         3033.5          182600 
         3033.8          183200 
         3034.1          178800 
         3034.4          169900 
         3034.7          157200 
           3035          141700 
         3035.3          124200 
         3035.6          105700 
         3035.9           87140 
         3036.2           69620 
         3036.5           54070 
         3036.8           41350 
         3037.1           32050 
         3037.4           26380 
         3037.7           24190 
           3038           25150 
         3038.3           28570 
         3038.6           33640 
         3038.9           39450 
         3039.2           45120 
         3039.5           49980 
         3039.8           53450 
         3040.1           55320 
         3040.4           55620 
         3040.7           54700 
           3041           53080 
         3041.3           51440 
         3041.6           50530 
         3041.9           50990 
         3042.2           53220 
         3042.5           57230 
         3042.8           62620 
         3043.1           68640 
         3043.4           74350 
         3043.7           78810 
           3044           81320 
         3044.3           81460 
         3044.6           79150 
         3044.9           74580 
         3045.2           68170 
         3045.5           60480 
         3045.8           52130 
         3046.1           43710 
         3046.4           35830 
         3046.7           29030 
           3047           23760 
         3047.3           20360 
         3047.6           19010 
         3047.9           19650 
         3048.2           22020 
         3048.5           25620 
         3048.8           29980 
         3049.1           34550 
         3049.4           39130 
         3049.7           43940 
           3050           49610 
         3050.3           57030 
         3050.6           67010 
         3050.9           79840 
         3051.2           94930 
         3051.5          110700 
         3051.8          124900 
         3052.1          135000 
         3052.4          139000 
         3052.7          136200 
           3053          127200 
         3053.3          113900 
         3053.6           98820 
         3053.9           84520 
         3054.2           72890 
         3054.5           64760 
         3054.8           59910 
         3055.1           57320 
         3055.4           55630 
         3055.7           53590 
           3056           50360 
         3056.3           45660 
         3056.6           39720 
         3056.9           33170 
         3057.2           26710 
         3057.5           20990 
         3057.8           16490 
         3058.1           13480 
         3058.4           12160 
         3058.7           12790 
           3059           15490 
         3059.3           20550 
         3059.6           28170 
         3059.9           38480 
         3060.2           51330 
         3060.5           66230 
         3060.8           82310 
         3061.1           98390 
         3061.4          113000 
         3061.7          124800 
           3062          132500 
         3062.3          135300 
         3062.6          132900 
         3062.9          126200 
         3063.2          116600 
         3063.5          105700 
         3063.8           95580 
         3064.1           87380 
         3064.4           81700 
         3064.7           78240 
           3065           75970 
         3065.3           73860 
         3065.6           70970 
         3065.9           67180 
         3066.2           63120 
         3066.5           60230 
         3066.8           60470 
         3067.1           65930 
         3067.4           77840 
         3067.7           96870 
           3068          122300 
         3068.3          152200 
         3068.6          183700 
         3068.9          213600 
         3069.2          238900 
         3069.5          257400 
         3069.8          268400 
         3070.1          272000 
         3070.4          269300 
         3070.7          261500 
           3071          250000 
         3071.3          235900 
         3071.6          220400 
         3071.9          205000 
         3072.2          190900 
         3072.5          179300 
         3072.8          170700 
         3073.1          164600 
         3073.4          159700 
         3073.7          154900 
           3074          148900 
         3074.3          141700 
         3074.6          134200 
         3074.9          128000 
         3075.2          125400 
         3075.5          127700 
         3075.8          135600 
         3076.1          148000 
         3076.4          163100 
         3076.7          177700 
           3077          189200 
         3077.3          195800 
         3077.6          197100 
         3077.9          194100 
         3078.2          188800 
         3078.5          183600 
         3078.8          180200 
         3079.1          179400 
         3079.4          180700 
         3079.7          182600 
           3080          183400 
         3080.3          181600 
         3080.6          176500 
         3080.9          168200 
         3081.2          157600 
         3081.5          146100 
         3081.8          135700 
         3082.1          127800 
         3082.4          123900 
         3082.7          125500 
           3083          133700 
         3083.3          150000 
         3083.6          175000 
         3083.9          208600 
         3084.2          249500 
         3084.5          294400 
         3084.8          338900 
         3085.1          377100 
         3085.4          403600 
         3085.7          414300 
           3086          407400 
         3086.3          384300 
         3086.6          349000 
         3086.9          307400 
         3087.2          265800 
         3087.5          229300 
         3087.8          201000 
         3088.1          181800 
         3088.4          170400 
         3088.7          164000 
           3089          159800 
         3089.3          155200 
         3089.6          148900 
         3089.9          140500 
         3090.2          130600 
         3090.5          119900 
         3090.8          109500 
         3091.1          100000 
         3091.4           91950 
         3091.7           85620 
           3092           81270 
         3092.3           79320 
         3092.6           80290 
         3092.9           84720 
         3093.2           92840 
         3093.5          104200 
         3093.8          117600 
         3094.1          131200 
         3094.4          142700 
         3094.7          150500 
           3095          153500 
         3095.3          151700 
         3095.6          146400 
         3095.9          139300 
         3096.2          132600 
         3096.5          127700 
         3096.8          125200 
         3097.1          124600 
         3097.4          124300 
         3097.7          122400 
           3098          117400 
         3098.3          108300 
         3098.6           95610 
         3098.9           80490 
         3099.2           64720 
         3099.5           50000 
         3099.8           37830 
         3100.1           29090 
         3100.4           24360 
         3100.7           23830 
           3101           27720 
         3101.3           36140 
         3101.6           49050 
         3101.9           66070 
         3102.2           86440 
         3102.5          108900 
         3102.8          131700 
         3103.1          153100 
         3103.4          171800 
         3103.7          186500 
           3104          197000 
         3104.3          203700 
         3104.6          207900 
         3104.9          211300 
         3105.2          216300 
         3105.5          224600 
         3105.8          237900 
         3106.1          256300 
         3106.4          279200 
         3106.7          305200 
           3107          332100 
         3107.3          358000 
         3107.6          381000 
         3107.9          399200 
         3108.2          411100 
         3108.5          415900 
         3108.8          413300 
         3109.1          404300 
         3109.4          391200 
         3109.7          377700 
           3110          368000 
         3110.3          365400 
         3110.6          371600 
         3110.9          385300 
         3111.2          403100 
         3111.5          419800 
         3111.8          430100 
         3112.1          429900 
         3112.4          418100 
         3112.7          396000 
           3113          367300 
         3113.3          337400 
         3113.6          311200 
         3113.9          292400 
         3114.2          282400 
         3114.5          280400 
         3114.8          283600 
         3115.1          288100 
         3115.4          290600 
         3115.7          288400 
           3116          280500 
         3116.3          267400 
         3116.6          250200 
         3116.9          231200 
         3117.2          212000 
         3117.5          194300 
         3117.8          179300 
         3118.1          167700 
         3118.4          160000 
         3118.7          156500 
           3119          157100 
         3119.3          161800 
         3119.6          170200 
         3119.9          181500 
         3120.2          194300 
         3120.5          206600 
         3120.8          215800 
         3121.1          219700 
         3121.4          217700 
         3121.7          210800 
           3122          201400 
         3122.3          192900 
         3122.6          188300 
         3122.9          189600 
         3123.2          197000 
         3123.5          208500 
         3123.8          221000 
         3124.1          231100 
         3124.4          236800 
         3124.7          237700 
           3125          235400 
         3125.3          233300 
         3125.6          234400 
         3125.9          241000 
         3126.2          253300 
         3126.5          269300 
         3126.8          286100 
         3127.1          300300 
         3127.4          309300 
         3127.7          311500 
           3128          307300 
         3128.3          297900 
         3128.6          285500 
         3128.9          272400 
         3129.2          259900 
         3129.5          248900 
         3129.8          239400 
         3130.1          231200 
         3130.4          223900 
         3130.7          217100 
           3131          210300 
         3131.3          202700 
         3131.6          193800 
         3131.9          183100 
         3132.2          170600 
         3132.5          157200 
         3132.8          144300 
         3133.1          133900 
         3133.4          128300 
         3133.7          129200 
           3134          137600 
         3134.3          153300 
         3134.6          174600 
         3134.9          198700 
         3135.2          222400 
         3135.5          242600 
         3135.8          257600 
         3136.1          266600 
         3136.4          270500 
         3136.7          270600 
           3137          268500 
         3137.3          266000 
         3137.6          264300 
         3137.9          264700 
         3138.2          268000 
         3138.5          274800 
         3138.8          285300 
         3139.1          299200 
         3139.4          316000 
         3139.7          334800 
           3140          354500 
         3140.3          373200 
         3140.6          388700 
         3140.9          398300 
         3141.2          399500 
         3141.5          391000 
         3141.8          372300 
         3142.1          344500 
         3142.4          309800 
         3142.7          271100 
           3143          231400 
         3143.3          193900 
         3143.6          161000 
         3143.9          134900 
         3144.2          116400 
         3144.5          105900 
         3144.8          102700 
         3145.1          105300 
         3145.4          112000 
         3145.7          120900 
           3146          130700 
         3146.3          141200 
         3146.6          153100 
         3146.9          167800 
         3147.2          186800 
         3147.5          210800 
         3147.8          239700 
         3148.1          271700 
         3148.4          304400 
         3148.7          334900 
           3149          360900 
         3149.3          381100 
         3149.6          395300 
         3149.9          404000 
         3150.2          408000 
         3150.5          407800 
         3150.8          403800 
         3151.1          396700 
         3151.4          387200 
         3151.7          376700 
           3152          366800 
         3152.3          359000 
         3152.6          353900 
         3152.9          351400 
         3153.2          350400 
         3153.5          349700 
         3153.8          348100 
         3154.1          344700 
         3154.4          339500 
         3154.7          332500 
           3155          323900 
         3155.3          313400 
         3155.6          300400 
         3155.9          284600 
         3156.2          265500 
         3156.5          243400 
         3156.8          219500 
         3157.1          195400 
         3157.4          173100 
         3157.7          154100 
           3158          139700 
         3158.3          130300 
         3158.6          125000 
         3158.9          122600 
         3159.2          121700 
         3159.5          120600 
         3159.8          118300 
         3160.1          114500 
         3160.4          109700 
         3160.7          105400 
           3161          103100 
         3161.3          104300 
         3161.6          110100 
         3161.9          120800 
         3162.2          135400 
         3162.5          152400 
         3162.8          169400 
         3163.1          184600 
         3163.4          195900 
         3163.7          202700 
           3164          205600 
         3164.3          206200 
         3164.6          206700 
         3164.9          209500 
         3165.2          216000 
         3165.5          226700 
         3165.8          240600 
         3166.1          255700 
         3166.4          269100 
         3166.7          277900 
           3167          280000 
         3167.3          275300 
         3167.6          264900 
         3167.9          252400 
         3168.2          241900 
         3168.5          237600 
         3168.8          242700 
         3169.1          258000 
         3169.4          282000 
         3169.7          311700 
           3170          343300 
         3170.3          373200 
         3170.6          399300 
         3170.9          420800 
         3171.2          438600 
         3171.5          453700 
         3171.8          466800 
         3172.1          477800 
         3172.4          485700 
         3172.7          489300 
           3173          488000 
         3173.3          482200 
         3173.6          473400 
         3173.9          464300 
         3174.2          458000 
         3174.5          457800 
         3174.8          465600 
         3175.1          482000 
         3175.4          504900 
         3175.7          530000 
           3176          551300 
         3176.3          562900 
         3176.6          560000 
         3176.9          540800 
         3177.2          507000 
         3177.5          462400 
         3177.8          412500 
         3178.1          362300 
