# Granada HRES Library
# atmosphere = Spectrum  (atmosphere model used)
# feh = 0  (value for [Fe/H] for the model.)
# logg = 1 log(cm/s2) (value for Log(G) for the model.)
# teff = 5500 K (value for the effective temperature for the model. Temperatures are given in K)
#
# column 1: WAVELENGTH (ANGSTROM), Wavelength in Angstrom
# column 2: FLUX (ERG/CM2/S/A), Flux in erg/cm2/s/A
         3000.2          506400 
         3000.5          497800 
         3000.8          492000 
         3001.1          487500 
         3001.4          483400 
         3001.7          479100 
           3002          476700 
         3002.3          480200 
         3002.6          495900 
         3002.9          530300 
         3003.2          588500 
         3003.5          672100 
         3003.8          778400 
         3004.1          900900 
         3004.4        1.029e+6 
         3004.7         1.15e+6 
           3005        1.251e+6 
         3005.3        1.322e+6 
         3005.6        1.355e+6 
         3005.9        1.347e+6 
         3006.2        1.302e+6 
         3006.5        1.227e+6 
         3006.8        1.134e+6 
         3007.1        1.037e+6 
         3007.4          946800 
         3007.7          875800 
           3008          831500 
         3008.3          819100 
         3008.6          839300 
         3008.9          890000 
         3009.2          964700 
         3009.5        1.053e+6 
         3009.8        1.145e+6 
         3010.1        1.226e+6 
         3010.4        1.286e+6 
         3010.7         1.32e+6 
           3011        1.325e+6 
         3011.3        1.308e+6 
         3011.6        1.278e+6 
         3011.9        1.246e+6 
         3012.2        1.219e+6 
         3012.5        1.202e+6 
         3012.8        1.194e+6 
         3013.1        1.192e+6 
         3013.4        1.194e+6 
         3013.7        1.196e+6 
           3014        1.197e+6 
         3014.3        1.195e+6 
         3014.6        1.189e+6 
         3014.9         1.18e+6 
         3015.2         1.17e+6 
         3015.5         1.16e+6 
         3015.8        1.149e+6 
         3016.1        1.138e+6 
         3016.4        1.123e+6 
         3016.7        1.101e+6 
           3017        1.068e+6 
         3017.3        1.023e+6 
         3017.6          969400 
         3017.9          907200 
         3018.2          838200 
         3018.5          764000 
         3018.8          685300 
         3019.1          604200 
         3019.4          524400 
         3019.7          451700 
           3020          393800 
         3020.3          359500 
         3020.6          357500 
         3020.9          393800 
         3021.2          469000 
         3021.5          577700 
         3021.8          708000 
         3022.1          844500 
         3022.4          970600 
         3022.7        1.073e+6 
           3023        1.143e+6 
         3023.3        1.179e+6 
         3023.6        1.186e+6 
         3023.9        1.169e+6 
         3024.2        1.134e+6 
         3024.5        1.086e+6 
         3024.8         1.03e+6 
         3025.1          975600 
         3025.4          933100 
         3025.7          915300 
           3026          932900 
         3026.3          989200 
         3026.6        1.079e+6 
         3026.9         1.19e+6 
         3027.2        1.304e+6 
         3027.5        1.406e+6 
         3027.8        1.481e+6 
         3028.1        1.522e+6 
         3028.4        1.525e+6 
         3028.7        1.494e+6 
           3029        1.437e+6 
         3029.3        1.364e+6 
         3029.6        1.284e+6 
         3029.9        1.207e+6 
         3030.2         1.14e+6 
         3030.5        1.088e+6 
         3030.8        1.054e+6 
         3031.1        1.043e+6 
         3031.4        1.057e+6 
         3031.7        1.095e+6 
           3032        1.148e+6 
         3032.3        1.208e+6 
         3032.6        1.263e+6 
         3032.9        1.307e+6 
         3033.2        1.338e+6 
         3033.5        1.361e+6 
         3033.8         1.38e+6 
         3034.1          1.4e+6 
         3034.4        1.424e+6 
         3034.7        1.446e+6 
           3035        1.457e+6 
         3035.3        1.447e+6 
         3035.6        1.405e+6 
         3035.9        1.326e+6 
         3036.2        1.215e+6 
         3036.5        1.084e+6 
         3036.8          952700 
         3037.1          839400 
         3037.4          761100 
         3037.7          727300 
           3038          738000 
         3038.3          786100 
         3038.6          859400 
         3038.9          943700 
         3039.2        1.026e+6 
         3039.5        1.095e+6 
         3039.8        1.144e+6 
         3040.1        1.169e+6 
         3040.4        1.171e+6 
         3040.7        1.153e+6 
           3041         1.12e+6 
         3041.3         1.08e+6 
         3041.6        1.043e+6 
         3041.9        1.016e+6 
         3042.2        1.005e+6 
         3042.5        1.012e+6 
         3042.8        1.034e+6 
         3043.1        1.061e+6 
         3043.4        1.087e+6 
         3043.7        1.105e+6 
           3044        1.113e+6 
         3044.3        1.114e+6 
         3044.6        1.112e+6 
         3044.9        1.108e+6 
         3045.2        1.105e+6 
         3045.5        1.096e+6 
         3045.8        1.076e+6 
         3046.1         1.04e+6 
         3046.4          987400 
         3046.7          923700 
           3047          861100 
         3047.3          814200 
         3047.6          795300 
         3047.9          810200 
         3048.2          856500 
         3048.5          925400 
         3048.8        1.004e+6 
         3049.1        1.078e+6 
         3049.4         1.14e+6 
         3049.7        1.187e+6 
           3050        1.226e+6 
         3050.3        1.267e+6 
         3050.6        1.321e+6 
         3050.9        1.392e+6 
         3051.2        1.477e+6 
         3051.5        1.563e+6 
         3051.8        1.633e+6 
         3052.1        1.669e+6 
         3052.4        1.661e+6 
         3052.7         1.61e+6 
           3053        1.524e+6 
         3053.3         1.42e+6 
         3053.6        1.318e+6 
         3053.9        1.234e+6 
         3054.2         1.18e+6 
         3054.5        1.158e+6 
         3054.8        1.165e+6 
         3055.1        1.187e+6 
         3055.4        1.209e+6 
         3055.7        1.215e+6 
           3056        1.193e+6 
         3056.3         1.14e+6 
         3056.6        1.062e+6 
         3056.9          970900 
         3057.2          880000 
         3057.5          801900 
         3057.8          744600 
         3058.1          710800 
         3058.4          700400 
         3058.7          713500 
           3059          752800 
         3059.3          818900 
         3059.6          911400 
         3059.9        1.024e+6 
         3060.2        1.146e+6 
         3060.5        1.262e+6 
         3060.8        1.356e+6 
         3061.1         1.42e+6 
         3061.4        1.448e+6 
         3061.7        1.439e+6 
           3062        1.399e+6 
         3062.3        1.336e+6 
         3062.6        1.259e+6 
         3062.9        1.177e+6 
         3063.2        1.101e+6 
         3063.5        1.041e+6 
         3063.8          999200 
         3064.1          976400 
         3064.4          966100 
         3064.7          958700 
           3065          944800 
         3065.3          918300 
         3065.6          879100 
         3065.9          833100 
         3066.2          789900 
         3066.5          761200 
         3066.8          756800 
         3067.1          782200 
         3067.4          839100 
         3067.7          923300 
           3068        1.028e+6 
         3068.3        1.141e+6 
         3068.6         1.25e+6 
         3068.9        1.341e+6 
         3069.2        1.403e+6 
         3069.5        1.432e+6 
         3069.8        1.426e+6 
         3070.1        1.393e+6 
         3070.4         1.34e+6 
         3070.7        1.276e+6 
           3071        1.206e+6 
         3071.3        1.135e+6 
         3071.6        1.069e+6 
         3071.9        1.014e+6 
         3072.2          978100 
         3072.5          967300 
         3072.8          982600 
         3073.1        1.018e+6 
         3073.4        1.062e+6 
         3073.7        1.097e+6 
           3074        1.113e+6 
         3074.3        1.106e+6 
         3074.6        1.081e+6 
         3074.9        1.056e+6 
         3075.2        1.046e+6 
         3075.5        1.064e+6 
         3075.8         1.11e+6 
         3076.1        1.175e+6 
         3076.4        1.239e+6 
         3076.7        1.283e+6 
           3077        1.294e+6 
         3077.3        1.268e+6 
         3077.6        1.215e+6 
         3077.9        1.152e+6 
         3078.2        1.097e+6 
         3078.5        1.066e+6 
         3078.8         1.07e+6 
         3079.1        1.105e+6 
         3079.4        1.162e+6 
         3079.7        1.225e+6 
           3080        1.279e+6 
         3080.3        1.311e+6 
         3080.6        1.317e+6 
         3080.9          1.3e+6 
         3081.2        1.265e+6 
         3081.5        1.224e+6 
         3081.8        1.186e+6 
         3082.1         1.16e+6 
         3082.4        1.155e+6 
         3082.7        1.174e+6 
           3083        1.219e+6 
         3083.3        1.289e+6 
         3083.6        1.379e+6 
         3083.9        1.483e+6 
         3084.2        1.591e+6 
         3084.5        1.691e+6 
         3084.8        1.771e+6 
         3085.1         1.82e+6 
         3085.4         1.83e+6 
         3085.7        1.795e+6 
           3086        1.716e+6 
         3086.3        1.599e+6 
         3086.6        1.456e+6 
         3086.9        1.305e+6 
         3087.2        1.164e+6 
         3087.5        1.048e+6 
         3087.8          968600 
         3088.1          927800 
         3088.4          921200 
         3088.7          938300 
           3089          967400 
         3089.3          999300 
         3089.6         1.03e+6 
         3089.9        1.058e+6 
         3090.2        1.086e+6 
         3090.5        1.113e+6 
         3090.8        1.139e+6 
         3091.1         1.16e+6 
         3091.4         1.17e+6 
         3091.7        1.164e+6 
           3092        1.138e+6 
         3092.3        1.097e+6 
         3092.6         1.05e+6 
         3092.9         1.01e+6 
         3093.2          990900 
         3093.5          998200 
         3093.8         1.03e+6 
         3094.1        1.076e+6 
         3094.4        1.122e+6 
         3094.7        1.155e+6 
           3095        1.165e+6 
         3095.3         1.15e+6 
         3095.6        1.116e+6 
         3095.9        1.072e+6 
         3096.2         1.03e+6 
         3096.5        1.003e+6 
         3096.8          994800 
         3097.1        1.005e+6 
         3097.4        1.026e+6 
         3097.7        1.044e+6 
           3098        1.044e+6 
         3098.3        1.017e+6 
         3098.6          960100 
         3098.9          879800 
         3099.2          787900 
         3099.5          697900 
         3099.8          622000 
         3100.1          568000 
         3100.4          539600 
         3100.7          538800 
           3101          564800 
         3101.3          616500 
         3101.6          691700 
         3101.9          786700 
         3102.2          893800 
         3102.5        1.003e+6 
         3102.8        1.101e+6 
         3103.1        1.178e+6 
         3103.4        1.225e+6 
         3103.7        1.241e+6 
           3104        1.229e+6 
         3104.3        1.197e+6 
         3104.6        1.157e+6 
         3104.9        1.121e+6 
         3105.2          1.1e+6 
         3105.5        1.103e+6 
         3105.8        1.131e+6 
         3106.1        1.185e+6 
         3106.4        1.255e+6 
         3106.7        1.334e+6 
           3107        1.411e+6 
         3107.3        1.477e+6 
         3107.6        1.529e+6 
         3107.9        1.561e+6 
         3108.2        1.573e+6 
         3108.5        1.563e+6 
         3108.8        1.533e+6 
         3109.1        1.486e+6 
         3109.4        1.431e+6 
         3109.7        1.379e+6 
           3110         1.34e+6 
         3110.3        1.326e+6 
         3110.6        1.341e+6 
         3110.9        1.383e+6 
         3111.2        1.444e+6 
         3111.5        1.511e+6 
         3111.8        1.572e+6 
         3112.1        1.615e+6 
         3112.4        1.635e+6 
         3112.7        1.629e+6 
           3113        1.601e+6 
         3113.3        1.556e+6 
         3113.6        1.504e+6 
         3113.9        1.454e+6 
         3114.2        1.414e+6 
         3114.5         1.39e+6 
         3114.8        1.382e+6 
         3115.1        1.385e+6 
         3115.4        1.393e+6 
         3115.7        1.397e+6 
           3116        1.387e+6 
         3116.3        1.358e+6 
         3116.6         1.31e+6 
         3116.9        1.245e+6 
         3117.2        1.171e+6 
         3117.5        1.095e+6 
         3117.8        1.026e+6 
         3118.1          968400 
         3118.4          925800 
         3118.7          897200 
           3119          881200 
         3119.3          876500 
         3119.6          882400 
         3119.9          899200 
         3120.2          925900 
         3120.5          959500 
         3120.8          995200 
         3121.1        1.028e+6 
         3121.4        1.056e+6 
         3121.7         1.08e+6 
           3122        1.104e+6 
         3122.3        1.133e+6 
         3122.6        1.169e+6 
         3122.9         1.21e+6 
         3123.2        1.249e+6 
         3123.5        1.277e+6 
         3123.8        1.286e+6 
         3124.1        1.271e+6 
         3124.4        1.235e+6 
         3124.7        1.189e+6 
           3125         1.15e+6 
         3125.3        1.135e+6 
         3125.6        1.157e+6 
         3125.9        1.216e+6 
         3126.2        1.304e+6 
         3126.5        1.404e+6 
         3126.8        1.493e+6 
         3127.1        1.555e+6 
         3127.4        1.579e+6 
         3127.7        1.564e+6 
           3128        1.518e+6 
         3128.3        1.455e+6 
         3128.6        1.385e+6 
         3128.9        1.319e+6 
         3129.2        1.258e+6 
         3129.5        1.201e+6 
         3129.8        1.144e+6 
         3130.1        1.089e+6 
         3130.4        1.037e+6 
         3130.7          993100 
           3131          960100 
         3131.3          938700 
         3131.6          926700 
         3131.9          920400 
         3132.2          917700 
         3132.5          917300 
         3132.8          919600 
         3133.1          926200 
         3133.4          940200 
         3133.7          965200 
           3134        1.004e+6 
         3134.3        1.056e+6 
         3134.6        1.118e+6 
         3134.9        1.183e+6 
         3135.2        1.244e+6 
         3135.5        1.294e+6 
         3135.8        1.329e+6 
         3136.1        1.353e+6 
         3136.4        1.372e+6 
         3136.7        1.393e+6 
           3137         1.42e+6 
         3137.3        1.452e+6 
         3137.6        1.483e+6 
         3137.9        1.509e+6 
         3138.2        1.523e+6 
         3138.5        1.525e+6 
         3138.8        1.517e+6 
         3139.1        1.507e+6 
         3139.4        1.499e+6 
         3139.7        1.501e+6 
           3140        1.516e+6 
         3140.3        1.541e+6 
         3140.6        1.568e+6 
         3140.9        1.587e+6 
         3141.2        1.585e+6 
         3141.5        1.555e+6 
         3141.8        1.495e+6 
         3142.1        1.406e+6 
         3142.4        1.297e+6 
         3142.7        1.174e+6 
           3143        1.048e+6 
         3143.3          925600 
         3143.6          816700 
         3143.9          729100 
         3144.2          670300 
         3144.5          645200 
         3144.8          654900 
         3145.1          695600 
         3145.4          759100 
         3145.7          834100 
           3146          909900 
         3146.3          978400 
         3146.6        1.037e+6 
         3146.9        1.088e+6 
         3147.2        1.137e+6 
         3147.5         1.19e+6 
         3147.8        1.249e+6 
         3148.1        1.314e+6 
         3148.4        1.382e+6 
         3148.7        1.447e+6 
           3149        1.506e+6 
         3149.3        1.558e+6 
         3149.6        1.603e+6 
         3149.9        1.644e+6 
         3150.2        1.679e+6 
         3150.5        1.706e+6 
         3150.8        1.719e+6 
         3151.1        1.719e+6 
         3151.4        1.708e+6 
         3151.7         1.69e+6 
           3152        1.672e+6 
         3152.3        1.657e+6 
         3152.6        1.646e+6 
         3152.9        1.633e+6 
         3153.2        1.612e+6 
         3153.5        1.577e+6 
         3153.8        1.529e+6 
         3154.1        1.471e+6 
         3154.4        1.411e+6 
         3154.7        1.357e+6 
           3155        1.316e+6 
         3155.3         1.29e+6 
         3155.6        1.277e+6 
         3155.9        1.271e+6 
         3156.2        1.263e+6 
         3156.5        1.245e+6 
         3156.8        1.211e+6 
         3157.1        1.159e+6 
         3157.4        1.092e+6 
         3157.7         1.02e+6 
           3158          949800 
         3158.3          892500 
         3158.6          854400 
         3158.9          837500 
         3159.2          837400 
         3159.5          845100 
         3159.8          849100 
         3160.1          841000 
         3160.4          817100 
         3160.7          781700 
           3161          744200 
         3161.3          717900 
         3161.6          714400 
         3161.9          741400 
         3162.2          800900 
         3162.5          887100 
         3162.8          988800 
         3163.1         1.09e+6 
         3163.4        1.177e+6 
         3163.7        1.236e+6 
           3164        1.264e+6 
         3164.3        1.265e+6 
         3164.6        1.249e+6 
         3164.9         1.23e+6 
         3165.2        1.217e+6 
         3165.5        1.217e+6 
         3165.8         1.23e+6 
         3166.1        1.252e+6 
         3166.4        1.272e+6 
         3166.7        1.284e+6 
           3167        1.277e+6 
         3167.3        1.251e+6 
         3167.6         1.21e+6 
         3167.9        1.162e+6 
         3168.2        1.122e+6 
         3168.5        1.105e+6 
         3168.8         1.12e+6 
         3169.1        1.168e+6 
         3169.4        1.244e+6 
         3169.7        1.337e+6 
           3170        1.434e+6 
         3170.3        1.526e+6 
         3170.6        1.606e+6 
         3170.9        1.672e+6 
         3171.2        1.727e+6 
         3171.5        1.771e+6 
         3171.8        1.806e+6 
         3172.1         1.83e+6 
         3172.4        1.839e+6 
         3172.7        1.829e+6 
           3173          1.8e+6 
         3173.3        1.754e+6 
         3173.6        1.699e+6 
         3173.9        1.644e+6 
         3174.2        1.597e+6 
         3174.5        1.567e+6 
         3174.8        1.562e+6 
         3175.1        1.582e+6 
         3175.4        1.623e+6 
         3175.7        1.674e+6 
           3176        1.721e+6 
         3176.3        1.749e+6 
         3176.6        1.745e+6 
         3176.9        1.705e+6 
         3177.2         1.63e+6 
         3177.5        1.529e+6 
         3177.8         1.41e+6 
         3178.1        1.287e+6 
