# Granada HRES Library
# atmosphere = Phoenix  (atmosphere model used)
# feh = 0  (value for [Fe/H] for the model.)
# logg = 5 log(cm/s2) (value for Log(G) for the model.)
# teff = 4500 K (value for the effective temperature for the model. Temperatures are given in K)
#
# column 1: WAVELENGTH (ANGSTROM), Wavelength in Angstrom
# column 2: FLUX (ERG/CM2/S/A), Flux in erg/cm2/s/A
         3000.2           14610 
         3000.5           13940 
         3000.8           13430 
         3001.1           13090 
         3001.4           12800 
         3001.7           12440 
           3002           11960 
         3002.3           11480 
         3002.6           11280 
         3002.9           11670 
         3003.2           12860 
         3003.5           14850 
         3003.8           17460 
         3004.1           20310 
         3004.4           23070 
         3004.7           25390 
           3005           27070 
         3005.3           27990 
         3005.6           28080 
         3005.9           27320 
         3006.2           25810 
         3006.5           23760 
         3006.8           21490 
         3007.1           19350 
         3007.4           17670 
         3007.7           16690 
           3008           16440 
         3008.3           16870 
         3008.6           17850 
         3008.9           19250 
         3009.2           20970 
         3009.5           22900 
         3009.8           24900 
         3010.1           26630 
         3010.4           27770 
         3010.7           28070 
           3011           27580 
         3011.3           26660 
         3011.6           25800 
         3011.9           25440 
         3012.2           25710 
         3012.5           26440 
         3012.8           27260 
         3013.1           27820 
         3013.4           27900 
         3013.7           27510 
           3014           26750 
         3014.3           25820 
         3014.6           24890 
         3014.9           24100 
         3015.2           23510 
         3015.5           23170 
         3015.8           23050 
         3016.1           23110 
         3016.4           23250 
         3016.7           23310 
           3017           23180 
         3017.3           22790 
         3017.6           22200 
         3017.9           21470 
         3018.2           20630 
         3018.5           19670 
         3018.8           18520 
         3019.1           17150 
         3019.4           15560 
         3019.7           13840 
           3020           12160 
         3020.3           10780 
         3020.6           10020 
         3020.9           10080 
         3021.2           11040 
         3021.5           12770 
         3021.8           14950 
         3022.1           17170 
         3022.4           19010 
         3022.7           20160 
           3023           20460 
         3023.3           20010 
         3023.6           19070 
         3023.9           18040 
         3024.2           17210 
         3024.5           16690 
         3024.8           16400 
         3025.1           16180 
         3025.4           16030 
         3025.7           16120 
           3026           16700 
         3026.3           17950 
         3026.6           19800 
         3026.9           22000 
         3027.2           24160 
         3027.5           26040 
         3027.8           27490 
         3028.1           28540 
         3028.4           29270 
         3028.7           29790 
           3029           30110 
         3029.3           30200 
         3029.6           30020 
         3029.9           29540 
         3030.2           28810 
         3030.5           28000 
         3030.8           27430 
         3031.1           27460 
         3031.4           28370 
         3031.7           30180 
           3032           32510 
         3032.3           34660 
         3032.6           35950 
         3032.9           35940 
         3033.2           34670 
         3033.5           32610 
         3033.8           30480 
         3034.1           28930 
         3034.4           28280 
         3034.7           28460 
           3035           29020 
         3035.3           29380 
         3035.6           29080 
         3035.9           27950 
         3036.2           26090 
         3036.5           23840 
         3036.8           21680 
         3037.1           20070 
         3037.4           19350 
         3037.7           19610 
           3038           20710 
         3038.3           22310 
         3038.6           24020 
         3038.9           25500 
         3039.2           26580 
         3039.5           27140 
         3039.8           27120 
         3040.1           26520 
         3040.4           25430 
         3040.7           24000 
           3041           22500 
         3041.3           21250 
         3041.6           20570 
         3041.9           20750 
         3042.2           21870 
         3042.5           23760 
         3042.8           26080 
         3043.1           28390 
         3043.4           30320 
         3043.7           31680 
           3044           32430 
         3044.3           32670 
         3044.6           32590 
         3044.9           32350 
         3045.2           32030 
         3045.5           31570 
         3045.8           30730 
         3046.1           29330 
         3046.4           27320 
         3046.7           24880 
           3047           22430 
         3047.3           20450 
         3047.6           19310 
         3047.9           19220 
         3048.2           20130 
         3048.5           21820 
         3048.8           23910 
         3049.1           25930 
         3049.4           27440 
         3049.7           28180 
           3050           28140 
         3050.3           27650 
         3050.6           27170 
         3050.9           27100 
         3051.2           27610 
         3051.5           28610 
         3051.8           29780 
         3052.1           30750 
         3052.4           31180 
         3052.7           30870 
           3053           29820 
         3053.3           28250 
         3053.6           26510 
         3053.9           25020 
         3054.2           24100 
         3054.5           23910 
         3054.8           24340 
         3055.1           25120 
         3055.4           25890 
         3055.7           26290 
           3056           26110 
         3056.3           25320 
         3056.6           24040 
         3056.9           22550 
         3057.2           21110 
         3057.5           19930 
         3057.8           19080 
         3058.1           18510 
         3058.4           18210 
         3058.7           18250 
           3059           18810 
         3059.3           20110 
         3059.6           22200 
         3059.9           24910 
         3060.2           27870 
         3060.5           30640 
         3060.8           32860 
         3061.1           34340 
         3061.4           35120 
         3061.7           35310 
           3062           34970 
         3062.3           34000 
         3062.6           32270 
         3062.9           29740 
         3063.2           26660 
         3063.5           23550 
         3063.8           20950 
         3064.1           19280 
         3064.4           18600 
         3064.7           18670 
           3065           19080 
         3065.3           19420 
         3065.6           19430 
         3065.9           19100 
         3066.2           18580 
         3066.5           18120 
         3066.8           17900 
         3067.1           18060 
         3067.4           18640 
         3067.7           19650 
           3068           21040 
         3068.3           22650 
         3068.6           24260 
         3068.9           25590 
         3069.2           26440 
         3069.5           26790 
         3069.8           26850 
         3070.1           27020 
         3070.4           27700 
         3070.7           29070 
           3071           31020 
         3071.3           33270 
         3071.6           35490 
         3071.9           37510 
         3072.2           39270 
         3072.5           40690 
         3072.8           41630 
         3073.1           41930 
         3073.4           41550 
         3073.7           40650 
           3074           39480 
         3074.3           38220 
         3074.6           37020 
         3074.9           36020 
         3075.2           35500 
         3075.5           35800 
         3075.8           37080 
         3076.1           39160 
         3076.4           41500 
         3076.7           43380 
           3077           44280 
         3077.3           44050 
         3077.6           42940 
         3077.9           41470 
         3078.2           40150 
         3078.5           39260 
         3078.8           38690 
         3079.1           38080 
         3079.4           37040 
         3079.7           35340 
           3080           32980 
         3080.3           30180 
         3080.6           27250 
         3080.9           24480 
         3081.2           22140 
         3081.5           20420 
         3081.8           19430 
         3082.1           19170 
         3082.4           19500 
         3082.7           20180 
           3083           21040 
         3083.3           22000 
         3083.6           23100 
         3083.9           24380 
         3084.2           25840 
         3084.5           27420 
         3084.8           29020 
         3085.1           30560 
         3085.4           31880 
         3085.7           32810 
           3086           33260 
         3086.3           33420 
         3086.6           33670 
         3086.9           34450 
         3087.2           36020 
         3087.5           38280 
         3087.8           40740 
         3088.1           42620 
         3088.4           43190 
         3088.7           42020 
           3089           39260 
         3089.3           35520 
         3089.6           31620 
         3089.9           28200 
         3090.2           25550 
         3090.5           23560 
         3090.8           21960 
         3091.1           20470 
         3091.4           18920 
         3091.7           17350 
           3092           15920 
         3092.3           14950 
         3092.6           14790 
         3092.9           15670 
         3093.2           17570 
         3093.5           20160 
         3093.8           22960 
         3094.1           25440 
         3094.4           27230 
         3094.7           28130 
           3095           28150 
         3095.3           27450 
         3095.6           26310 
         3095.9           25130 
         3096.2           24360 
         3096.5           24400 
         3096.8           25440 
         3097.1           27320 
         3097.4           29480 
         3097.7           31140 
           3098           31610 
         3098.3           30590 
         3098.6           28240 
         3098.9           25190 
         3099.2           22180 
         3099.5           19880 
         3099.8           18660 
         3100.1           18490 
         3100.4           19060 
         3100.7           19950 
           3101           20830 
         3101.3           22650 
         3101.6           24120 
         3101.9           26330 
         3102.2           29250 
         3102.5           32600 
         3102.8           36010 
         3103.1           39110 
         3103.4           41630 
         3103.7           43380 
           3104           44130 
         3104.3           43690 
         3104.6           42000 
         3104.9           39270 
         3105.2           36000 
         3105.5           32840 
         3105.8           30360 
         3106.1           28830 
         3106.4           28300 
         3106.7           28560 
           3107           29360 
         3107.3           30440 
         3107.6           31570 
         3107.9           32590 
         3108.2           33410 
         3108.5           34120 
         3108.8           34890 
         3109.1           35980 
         3109.4           37610 
         3109.7           39830 
           3110           42540 
         3110.3           45420 
         3110.6           48060 
         3110.9           50010 
         3111.2           50980 
         3111.5           50970 
         3111.8           50140 
         3112.1           48840 
         3112.4           47430 
         3112.7           46330 
           3113           46100 
         3113.3           47370 
         3113.6           50610 
         3113.9           55940 
         3114.2           62880 
         3114.5           70290 
         3114.8           76700 
         3115.1           80610 
         3115.4           80940 
         3115.7           77410 
           3116           70690 
         3116.3           62200 
         3116.6           53780 
         3116.9           47040 
         3117.2           42930 
         3117.5           41540 
         3117.8           42260 
         3118.1           44060 
         3118.4           45990 
         3118.7           47620 
           3119           49070 
         3119.3           50960 
         3119.6           53920 
         3119.9           58000 
         3120.2           62330 
         3120.5           65380 
         3120.8           65630 
         3121.1           62480 
         3121.4           56630 
         3121.7           49800 
           3122           43920 
         3122.3           40410 
         3122.6           39710 
         3122.9           41400 
         3123.2           44500 
         3123.5           47890 
         3123.8           50680 
         3124.1           52410 
         3124.4           53150 
         3124.7           53390 
           3125           53880 
         3125.3           55450 
         3125.6           58690 
         3125.9           63760 
         3126.2           70020 
         3126.5           75970 
         3126.8           79580 
         3127.1           79180 
         3127.4           74380 
         3127.7           66340 
           3128           57220 
         3128.3           49170 
         3128.6           43470 
         3128.9           40290 
         3129.2           39100 
         3129.5           39130 
         3129.8           39890 
         3130.1           41290 
         3130.4           43450 
         3130.7           46420 
           3131           49850 
         3131.3           53020 
         3131.6           54990 
         3131.9           55080 
         3132.2           53100 
         3132.5           49470 
         3132.8           45060 
         3133.1           40890 
         3133.4           37930 
         3133.7           36930 
           3134           38180 
         3134.3           41310 
         3134.6           45310 
         3134.9           48860 
         3135.2           50930 
         3135.5           51310 
         3135.8           50760 
         3136.1           50680 
         3136.4           52650 
         3136.7           57820 
           3137           66490 
         3137.3           77780 
         3137.6           89670 
         3137.9           99590 
         3138.2          105200 
         3138.5          105500 
         3138.8          100800 
         3139.1           92820 
         3139.4           83510 
         3139.7           74810 
           3140           67940 
         3140.3           63340 
         3140.6           60640 
         3140.9           59070 
         3141.2           57910 
         3141.5           56830 
         3141.8           55780 
         3142.1           54750 
         3142.4           53530 
         3142.7           51830 
           3143           49560 
         3143.3           47080 
         3143.6           44950 
         3143.9           43660 
         3144.2           43400 
         3144.5           44070 
         3144.8           45470 
         3145.1           47330 
         3145.4           49160 
         3145.7           50360 
           3146           50450 
         3146.3           49510 
         3146.6           48400 
         3146.9           48560 
         3147.2           51470 
         3147.5           57960 
         3147.8           67720 
         3148.1           79150 
         3148.4           89680 
         3148.7           96630 
           3149           98210 
         3149.3           94260 
         3149.6           86210 
         3149.9           76330 
         3150.2           66820 
         3150.5           59180 
         3150.8           54020 
         3151.1           51260 
         3151.4           50440 
         3151.7           50920 
           3152           52070 
         3152.3           53290 
         3152.6           54100 
         3152.9           54250 
         3153.2           53860 
         3153.5           53450 
         3153.8           53850 
         3154.1           55730 
         3154.4           59090 
         3154.7           63000 
           3155           66120 
         3155.3           67360 
         3155.6           66600 
         3155.9           64580 
         3156.2           62580 
         3156.5           61780 
         3156.8           62760 
         3157.1           65580 
         3157.4           69690 
         3157.7           74410 
           3158           79090 
         3158.3           83290 
         3158.6           86650 
         3158.9           88670 
         3159.2           88620 
         3159.5           85860 
         3159.8           80390 
         3160.1           73220 
         3160.4           66050 
         3160.7           60820 
           3161           59030 
         3161.3           61610 
         3161.6           68830 
         3161.9           80310 
         3162.2           94660 
         3162.5          109300 
         3162.8          120800 
         3163.1          126000 
         3163.4          123600 
         3163.7          114900 
           3164          102800 
         3164.3           91110 
         3164.6           82360 
         3164.9           78030 
         3165.2           78640 
         3165.5           84330 
         3165.8           94920 
         3166.1          109400 
         3166.4          125700 
         3166.7          140200 
           3167          149300 
         3167.3          150700 
         3167.6          144600 
         3167.9          133800 
         3168.2          123000 
         3168.5          116600 
         3168.8          117500 
         3169.1          125600 
         3169.4          138000 
         3169.7          150400 
           3170          158800 
         3170.3          161500 
         3170.6          159600 
         3170.9          156400 
         3171.2          155500 
         3171.5          158700 
         3171.8          165300 
         3172.1          172000 
         3172.4          176300 
         3172.7          177500 
           3173          178200 
         3173.3          181900 
         3173.6          190500 
         3173.9          202500 
         3174.2          214400 
         3174.5          222700 
         3174.8          226800 
         3175.1          228400 
         3175.4          230000 
         3175.7          231900 
           3176          232300 
         3176.3          227700 
         3176.6          216000 
         3176.9          197600 
         3177.2          176100 
         3177.5          155900 
         3177.8          140500 
         3178.1          130600 
