# Granada HRES Library
# atmosphere = Spectrum  (atmosphere model used)
# feh = 3  (value for [Fe/H] for the model.)
# logg = 4.5 log(cm/s2) (value for Log(G) for the model.)
# teff = 4750 K (value for the effective temperature for the model. Temperatures are given in K)
#
# column 1: WAVELENGTH (ANGSTROM), Wavelength in Angstrom
# column 2: FLUX (ERG/CM2/S/A), Flux in erg/cm2/s/A
         3000.2           21590 
         3000.5           22260 
         3000.8           23090 
         3001.1           24070 
         3001.4           25170 
         3001.7           26400 
           3002           27820 
         3002.3           29540 
         3002.6           31720 
         3002.9           34530 
         3003.2           38100 
         3003.5           42440 
         3003.8           47420 
         3004.1           52750 
         3004.4           58000 
         3004.7           62660 
           3005           66230 
         3005.3           68250 
         3005.6           68460 
         3005.9           66780 
         3006.2           63410 
         3006.5           58800 
         3006.8           53580 
         3007.1           48450 
         3007.4           44090 
         3007.7           41060 
           3008           39750 
         3008.3           40380 
         3008.6           43000 
         3008.9           47500 
         3009.2           53530 
         3009.5           60540 
         3009.8           67770 
         3010.1           74410 
         3010.4           79710 
         3010.7           83250 
           3011           84960 
         3011.3           85240 
         3011.6           84700 
         3011.9           83970 
         3012.2           83430 
         3012.5           83120 
         3012.8           82800 
         3013.1           82140 
         3013.4           80800 
         3013.7           78720 
           3014           76020 
         3014.3           73010 
         3014.6           70010 
         3014.9           67300 
         3015.2           64960 
         3015.5           62930 
         3015.8           60990 
         3016.1           58920 
         3016.4           56520 
         3016.7           53700 
           3017           50510 
         3017.3           47040 
         3017.6           43440 
         3017.9           39780 
         3018.2           36150 
         3018.5           32580 
         3018.8           29110 
         3019.1           25780 
         3019.4           22700 
         3019.7           20030 
           3020           17990 
         3020.3           16800 
         3020.6           16660 
         3020.9           17700 
         3021.2           19930 
         3021.5           23180 
         3021.8           27140 
         3022.1           31370 
         3022.4           35420 
         3022.7           38890 
           3023           41470 
         3023.3           43030 
         3023.6           43580 
         3023.9           43280 
         3024.2           42360 
         3024.5           41140 
         3024.8           40050 
         3025.1           39540 
         3025.4           40160 
         3025.7           42490 
           3026           46940 
         3026.3           53760 
         3026.6           62820 
         3026.9           73660 
         3027.2           85430 
         3027.5           97010 
         3027.8          107200 
         3028.1          114700 
         3028.4          118800 
         3028.7          119100 
           3029          115800 
         3029.3          109700 
         3029.6          102000 
         3029.9           94170 
         3030.2           87530 
         3030.5           83300 
         3030.8           82430 
         3031.1           85440 
         3031.4           92460 
         3031.7          103100 
           3032          116300 
         3032.3          130700 
         3032.6          144600 
         3032.9          156700 
         3033.2          165600 
         3033.5          170900 
         3033.8          172400 
         3034.1          170600 
         3034.4          166200 
         3034.7          159600 
           3035          151000 
         3035.3          140500 
         3035.6          128200 
         3035.9          114300 
         3036.2           99630 
         3036.5           85410 
         3036.8           72940 
         3037.1           63420 
         3037.4           57580 
         3037.7           55580 
           3038           57140 
         3038.3           61320 
         3038.6           66930 
         3038.9           72770 
         3039.2           77740 
         3039.5           81140 
         3039.8           82640 
         3040.1           82310 
         3040.4           80560 
         3040.7           78040 
           3041           75490 
         3041.3           73650 
         3041.6           73260 
         3041.9           74830 
         3042.2           78630 
         3042.5           84520 
         3042.8           91980 
         3043.1          100100 
         3043.4          107800 
         3043.7          113900 
           3044          117600 
         3044.3          118500 
         3044.6          116600 
         3044.9          112300 
         3045.2          106000 
         3045.5           98480 
         3045.8           90150 
         3046.1           81490 
         3046.4           73050 
         3046.7           65460 
           3047           59380 
         3047.3           55480 
         3047.6           54190 
         3047.9           55570 
         3048.2           59290 
         3048.5           64620 
         3048.8           70720 
         3049.1           76710 
         3049.4           82200 
         3049.7           87480 
           3050           93360 
         3050.3          101100 
         3050.6          111700 
         3050.9          125600 
         3051.2          142100 
         3051.5          159300 
         3051.8          174300 
         3052.1          184100 
         3052.4          186500 
         3052.7          180700 
           3053          167700 
         3053.3          150000 
         3053.6          130800 
         3053.9          112900 
         3054.2           98610 
         3054.5           88600 
         3054.8           82550 
         3055.1           79340 
         3055.4           77540 
         3055.7           75840 
           3056           73340 
         3056.3           69600 
         3056.6           64710 
         3056.9           59110 
         3057.2           53410 
         3057.5           48200 
         3057.8           44070 
         3058.1           41390 
         3058.4           40460 
         3058.7           41580 
           3059           44830 
         3059.3           50420 
         3059.6           58400 
         3059.9           68830 
         3060.2           81590 
         3060.5           96390 
         3060.8          112600 
         3061.1          129400 
         3061.4          145500 
         3061.7          159300 
           3062          169000 
         3062.3          173300 
         3062.6          171600 
         3062.9          164200 
         3063.2          152700 
         3063.5          139400 
         3063.8          126800 
         3064.1          116900 
         3064.4          110500 
         3064.7          107200 
           3065          105400 
         3065.3          103600 
         3065.6          100300 
         3065.9           95170 
         3066.2           88640 
         3066.5           82210 
         3066.8           77790 
         3067.1           77350 
         3067.4           82030 
         3067.7           92460 
           3068          108200 
         3068.3          127800 
         3068.6          149700 
         3068.9          171700 
         3069.2          192000 
         3069.5          209800 
         3069.8          224500 
         3070.1          236300 
         3070.4          245700 
         3070.7          252600 
           3071          257200 
         3071.3          259300 
         3071.6          258900 
         3071.9          256200 
         3072.2          251700 
         3072.5          245900 
         3072.8          239200 
         3073.1          231400 
         3073.4          222200 
         3073.7          211500 
           3074          199300 
         3074.3          186500 
         3074.6          174500 
         3074.9          165100 
         3075.2          160500 
         3075.5          161800 
         3075.8          169500 
         3076.1          182900 
         3076.4          199600 
         3076.7          216600 
           3077          230900 
         3077.3          240100 
         3077.6          243300 
         3077.9          240800 
         3078.2          234200 
         3078.5          225500 
         3078.8          216000 
         3079.1          206600 
         3079.4          197200 
         3079.7          187000 
           3080          175500 
         3080.3          162200 
         3080.6          147500 
         3080.9          132100 
         3081.2          117300 
         3081.5          104100 
         3081.8           93850 
         3082.1           87400 
         3082.4           85030 
         3082.7           87270 
           3083           94460 
         3083.3          107100 
         3083.6          125800 
         3083.9          150600 
         3084.2          181200 
         3084.5          216000 
         3084.8          252400 
         3085.1          286600 
         3085.4          314500 
         3085.7          332400 
           3086          338300 
         3086.3          332100 
         3086.6          315800 
         3086.9          293000 
         3087.2          267800 
         3087.5          243800 
         3087.8          223100 
         3088.1          206000 
         3088.4          191700 
         3088.7          178500 
           3089          164900 
         3089.3          150200 
         3089.6          134300 
         3089.9          118200 
         3090.2          102900 
         3090.5           89320 
         3090.8           77900 
         3091.1           68820 
         3091.4           62000 
         3091.7           57200 
           3092           54360 
         3092.3           53410 
         3092.6           54450 
         3092.9           57520 
         3093.2           62460 
         3093.5           68790 
         3093.8           75790 
         3094.1           82650 
         3094.4           88520 
         3094.7           92800 
           3095           95260 
         3095.3           95970 
         3095.6           95380 
         3095.9           94190 
         3096.2           93160 
         3096.5           92890 
         3096.8           93620 
         3097.1           95060 
         3097.4           96490 
         3097.7           96920 
           3098           95420 
         3098.3           91460 
         3098.6           85110 
         3098.9           76970 
         3099.2           68070 
         3099.5           59460 
         3099.8           52300 
         3100.1           47350 
         3100.4           45330 
         3100.7           46690 
           3101           51960 
         3101.3           61530 
         3101.6           75640 
         3101.9           94250 
         3102.2          116800 
         3102.5          142300 
         3102.8          169100 
         3103.1          195200 
         3103.4          218600 
         3103.7          237400 
           3104          250200 
         3104.3          256400 
         3104.6          256600 
         3104.9          252200 
         3105.2          245800 
         3105.5          240300 
         3105.8          238300 
         3106.1          241500 
         3106.4          250700 
         3106.7          265400 
           3107          284300 
         3107.3          305900 
         3107.6          328200 
         3107.9          348900 
         3108.2          366100 
         3108.5          378100 
         3108.8          384200 
         3109.1          384800 
         3109.4          382000 
         3109.7          378700 
           3110          378200 
         3110.3          383000 
         3110.6          393300 
         3110.9          407300 
         3111.2          421000 
         3111.5          430100 
         3111.8          430800 
         3112.1          421000 
         3112.4          401600 
         3112.7          375400 
           3113          346900 
         3113.3          321600 
         3113.6          303800 
         3113.9          296700 
         3114.2          301100 
         3114.5          314900 
         3114.8          334200 
         3115.1          353400 
         3115.4          367100 
         3115.7          371300 
           3116          364500 
         3116.3          347700 
         3116.6          324200 
         3116.9          298300 
         3117.2          273900 
         3117.5          253700 
         3117.8          239100 
         3118.1          230200 
         3118.4          226200 
         3118.7          226800 
           3119          231800 
         3119.3          241100 
         3119.6          254500 
         3119.9          271300 
         3120.2          288600 
         3120.5          303300 
         3120.8          311400 
         3121.1          310000 
         3121.4          298500 
         3121.7          278900 
           3122          255000 
         3122.3          232000 
         3122.6          214300 
         3122.9          204600 
         3123.2          203200 
         3123.5          208400 
         3123.8          217000 
         3124.1          225400 
         3124.4          231100 
         3124.7          233200 
           3125          232300 
         3125.3          230400 
         3125.6          229600 
         3125.9          231900 
         3126.2          237300 
         3126.5          244800 
         3126.8          252500 
         3127.1          258300 
         3127.4          260300 
         3127.7          258100 
           3128          252700 
         3128.3          245700 
         3128.6          239300 
         3128.9          235000 
         3129.2          233600 
         3129.5          234600 
         3129.8          237100 
         3130.1          240000 
         3130.4          242300 
         3130.7          243400 
           3131          242400 
         3131.3          238900 
         3131.6          232700 
         3131.9          223800 
         3132.2          212700 
         3132.5          200600 
         3132.8          189100 
         3133.1          180300 
         3133.4          176600 
         3133.7          179600 
           3134          190200 
         3134.3          208200 
         3134.6          231700 
         3134.9          258000 
         3135.2          283900 
         3135.5          306800 
         3135.8          325100 
         3136.1          338400 
         3136.4          347200 
         3136.7          351500 
           3137          351700 
         3137.3          348100 
         3137.6          341400 
         3137.9          333100 
         3138.2          325500 
         3138.5          320900 
         3138.8          321000 
         3139.1          326600 
         3139.4          336800 
         3139.7          350300 
           3140          364500 
         3140.3          377100 
         3140.6          385500 
         3140.9          387700 
         3141.2          382100 
         3141.5          368200 
         3141.8          346900 
         3142.1          319600 
         3142.4          288600 
         3142.7          256400 
           3143          225600 
         3143.3          198100 
         3143.6          175600 
         3143.9          159200 
         3144.2          149300 
         3144.5          145800 
         3144.8          148000 
         3145.1          154600 
         3145.4          164300 
         3145.7          175300 
           3146          186300 
         3146.3          197100 
         3146.6          208500 
         3146.9          222200 
         3147.2          239600 
         3147.5          261800 
         3147.8          288500 
         3148.1          317200 
         3148.4          344600 
         3148.7          367300 
           3149          382900 
         3149.3          390700 
         3149.6          391900 
         3149.9          389200 
         3150.2          384800 
         3150.5          380200 
         3150.8          375600 
         3151.1          370800 
         3151.4          365000 
         3151.7          358300 
           3152          351600 
         3152.3          346400 
         3152.6          343800 
         3152.9          344600 
         3153.2          348200 
         3153.5          353800 
         3153.8          359500 
         3154.1          364000 
         3154.4          366000 
         3154.7          364800 
           3155          359400 
         3155.3          349100 
         3155.6          333300 
         3155.9          312300 
         3156.2          287100 
         3156.5          259400 
         3156.8          231600 
         3157.1          206100 
         3157.4          184700 
         3157.7          168300 
           3158          156800 
         3158.3          149800 
         3158.6          146000 
         3158.9          143900 
         3159.2          142600 
         3159.5          141000 
         3159.8          138900 
         3160.1          136300 
         3160.4          134500 
         3160.7          134600 
           3161          138100 
         3161.3          145900 
         3161.6          158400 
         3161.9          175200 
         3162.2          194500 
         3162.5          214000 
         3162.8          231200 
         3163.1          244000 
         3163.4          250600 
         3163.7          251200 
           3164          247100 
         3164.3          240700 
         3164.6          235100 
         3164.9          233000 
         3165.2          236500 
         3165.5          246400 
         3165.8          262100 
         3166.1          281500 
         3166.4          301800 
         3166.7          319300 
           3167          330900 
         3167.3          335000 
         3167.6          331600 
         3167.9          323200 
         3168.2          313700 
         3168.5          307600 
         3168.8          309000 
         3169.1          319700 
         3169.4          338600 
         3169.7          362700 
           3170          387400 
         3170.3          408400 
         3170.6          423000 
         3170.9          430700 
         3171.2          433500 
         3171.5          433700 
         3171.8          433800 
         3172.1          434800 
         3172.4          436600 
         3172.7          437900 
           3173          437900 
         3173.3          435900 
         3173.6          432900 
         3173.9          430900 
         3174.2          432800 
         3174.5          442700 
         3174.8          463000 
         3175.1          495000 
         3175.4          536700 
         3175.7          582300 
           3176          623600 
         3176.3          651400 
         3176.6          658300 
         3176.9          641200 
         3177.2          602000 
         3177.5          546400 
         3177.8          483100 
         3178.1          419700 
