# Granada HRES Library
# atmosphere = Phoenix  (atmosphere model used)
# feh = -5  (value for [Fe/H] for the model.)
# logg = 5.5 log(cm/s2) (value for Log(G) for the model.)
# teff = 4500 K (value for the effective temperature for the model. Temperatures are given in K)
#
# column 1: WAVELENGTH (ANGSTROM), Wavelength in Angstrom
# column 2: FLUX (ERG/CM2/S/A), Flux in erg/cm2/s/A
         3000.2           23870 
         3000.5           22930 
         3000.8           22220 
         3001.1           21760 
         3001.4           21420 
         3001.7           21000 
           3002           20430 
         3002.3           19890 
         3002.6           19820 
         3002.9           20720 
         3003.2           22980 
         3003.5           26620 
         3003.8           31310 
         3004.1           36450 
         3004.4           41380 
         3004.7           45530 
           3005           48500 
         3005.3           50090 
         3005.6           50140 
         3005.9           48620 
         3006.2           45680 
         3006.5           41640 
         3006.8           37110 
         3007.1           32760 
         3007.4           29230 
         3007.7           26920 
           3008           25990 
         3008.3           26350 
         3008.6           27770 
         3008.9           30060 
         3009.2           33030 
         3009.5           36500 
         3009.8           40200 
         3010.1           43600 
         3010.4           46070 
         3010.7           47140 
           3011           46830 
         3011.3           45640 
         3011.6           44480 
         3011.9           44170 
         3012.2           45050 
         3012.5           46840 
         3012.8           48840 
         3013.1           50280 
         3013.4           50700 
         3013.7           50010 
           3014           48470 
         3014.3           46500 
         3014.6           44440 
         3014.9           42580 
         3015.2           41040 
         3015.5           39820 
         3015.8           38890 
         3016.1           38230 
         3016.4           37710 
         3016.7           37180 
           3017           36500 
         3017.3           35580 
         3017.6           34480 
         3017.9           33270 
         3018.2           31970 
         3018.5           30520 
         3018.8           28830 
         3019.1           26820 
         3019.4           24510 
         3019.7           22010 
           3020           19560 
         3020.3           17540 
         3020.6           16390 
         3020.9           16460 
         3021.2           17860 
         3021.5           20380 
         3021.8           23570 
         3022.1           26810 
         3022.4           29480 
         3022.7           31110 
           3023           31520 
         3023.3           30840 
         3023.6           29530 
         3023.9           28140 
         3024.2           27100 
         3024.5           26540 
         3024.8           26270 
         3025.1           26120 
         3025.4           26110 
         3025.7           26620 
           3026           28150 
         3026.3           31020 
         3026.6           35180 
         3026.9           40200 
         3027.2           45420 
         3027.5           50250 
         3027.8           54290 
         3028.1           57340 
         3028.4           59330 
         3028.7           60260 
           3029           60180 
         3029.3           59200 
         3029.6           57510 
         3029.9           55320 
         3030.2           52890 
         3030.5           50580 
         3030.8           48880 
         3031.1           48430 
         3031.4           49800 
         3031.7           53090 
           3032           57760 
         3032.3           62620 
         3032.6           66290 
         3032.9           67770 
         3033.2           66800 
         3033.5           64010 
         3033.8           60540 
         3034.1           57560 
         3034.4           55740 
         3034.7           55030 
           3035           54730 
         3035.3           53970 
         3035.6           52100 
         3035.9           48930 
         3036.2           44730 
         3036.5           40140 
         3036.8           35950 
         3037.1           32870 
         3037.4           31440 
         3037.7           31850 
           3038           33860 
         3038.3           36910 
         3038.6           40300 
         3038.9           43370 
         3039.2           45570 
         3039.5           46580 
         3039.8           46270 
         3040.1           44760 
         3040.4           42370 
         3040.7           39520 
           3041           36760 
         3041.3           34570 
         3041.6           33500 
         3041.9           33930 
         3042.2           35980 
         3042.5           39350 
         3042.8           43440 
         3043.1           47460 
         3043.4           50720 
         3043.7           52850 
           3044           53800 
         3044.3           53810 
         3044.6           53230 
         3044.9           52410 
         3045.2           51490 
         3045.5           50360 
         3045.8           48720 
         3046.1           46280 
         3046.4           42990 
         3046.7           39180 
           3047           35460 
         3047.3           32550 
         3047.6           31040 
         3047.9           31210 
         3048.2           32940 
         3048.5           35810 
         3048.8           39160 
         3049.1           42250 
         3049.4           44430 
         3049.7           45400 
           3050           45310 
         3050.3           44810 
         3050.6           44770 
         3050.9           45860 
         3051.2           48350 
         3051.5           51830 
         3051.8           55490 
         3052.1           58350 
         3052.4           59610 
         3052.7           58880 
           3053           56330 
         3053.3           52580 
         3053.6           48560 
         3053.9           45220 
         3054.2           43270 
         3054.5           43000 
         3054.8           44190 
         3055.1           46210 
         3055.4           48160 
         3055.7           49200 
           3056           48770 
         3056.3           46740 
         3056.6           43440 
         3056.9           39500 
         3057.2           35640 
         3057.5           32410 
         3057.8           30060 
         3058.1           28570 
         3058.4           27840 
         3058.7           27920 
           3059           29000 
         3059.3           31280 
         3059.6           34780 
         3059.9           39200 
         3060.2           43960 
         3060.5           48420 
         3060.8           52050 
         3061.1           54650 
         3061.4           56250 
         3061.7           57010 
           3062           56940 
         3062.3           55840 
         3062.6           53390 
         3062.9           49510 
         3063.2           44560 
         3063.5           39350 
         3063.8           34820 
         3064.1           31700 
         3064.4           30220 
         3064.7           30060 
           3065           30580 
         3065.3           31100 
         3065.6           31110 
         3065.9           30480 
         3066.2           29390 
         3066.5           28210 
         3066.8           27300 
         3067.1           26910 
         3067.4           27190 
         3067.7           28160 
           3068           29770 
         3068.3           31830 
         3068.6           34090 
         3068.9           36210 
         3069.2           37980 
         3069.5           39370 
         3069.8           40700 
         3070.1           42430 
         3070.4           44970 
         3070.7           48350 
           3071           52150 
         3071.3           55750 
         3071.6           58730 
         3071.9           61130 
         3072.2           63270 
         3072.5           65410 
         3072.8           67370 
         3073.1           68670 
         3073.4           68800 
         3073.7           67620 
           3074           65390 
         3074.3           62600 
         3074.6           59780 
         3074.9           57440 
         3075.2           56140 
         3075.5           56380 
         3075.8           58390 
         3076.1           61870 
         3076.4           66010 
         3076.7           69710 
           3077           72010 
         3077.3           72430 
         3077.6           71120 
         3077.9           68750 
         3078.2           66180 
         3078.5           64010 
         3078.8           62320 
         3079.1           60700 
         3079.4           58600 
         3079.7           55670 
           3080           51940 
         3080.3           47730 
         3080.6           43430 
         3080.9           39370 
         3081.2           35830 
         3081.5           33060 
         3081.8           31240 
         3082.1           30460 
         3082.4           30620 
         3082.7           31470 
           3083           32790 
         3083.3           34460 
         3083.6           36450 
         3083.9           38670 
         3084.2           40960 
         3084.5           43170 
         3084.8           45230 
         3085.1           47110 
         3085.4           48740 
         3085.7           49900 
           3086           50420 
         3086.3           50390 
         3086.6           50280 
         3086.9           50760 
         3087.2           52350 
         3087.5           55110 
         3087.8           58490 
         3088.1           61440 
         3088.4           62830 
         3088.7           61870 
           3089           58510 
         3089.3           53460 
         3089.6           47800 
         3089.9           42570 
         3090.2           38340 
         3090.5           35180 
         3090.8           32780 
         3091.1           30730 
         3091.4           28740 
         3091.7           26710 
           3092           24810 
         3092.3           23480 
         3092.6           23200 
         3092.9           24330 
         3093.2           26840 
         3093.5           30270 
         3093.8           33880 
         3094.1           36960 
         3094.4           39010 
         3094.7           39840 
           3095           39580 
         3095.3           38510 
         3095.6           37050 
         3095.9           35690 
         3096.2           34940 
         3096.5           35230 
         3096.8           36730 
         3097.1           39160 
         3097.4           41800 
         3097.7           43730 
           3098           44170 
         3098.3           42830 
         3098.6           39980 
         3098.9           36340 
         3099.2           32760 
         3099.5           30000 
         3099.8           28480 
         3100.1           28210 
         3100.4           28840 
         3100.7           29840 
           3101           30840 
         3101.3           32800 
         3101.6           34470 
         3101.9           37110 
         3102.2           40840 
         3102.5           45430 
         3102.8           50440 
         3103.1           55300 
         3103.4           59420 
         3103.7           62190 
           3104           63110 
         3104.3           61930 
         3104.6           58860 
         3104.9           54570 
         3105.2           50080 
         3105.5           46410 
         3105.8           44250 
         3106.1           43760 
         3106.4           44680 
         3106.7           46510 
           3107           48670 
         3107.3           50760 
         3107.6           52440 
         3107.9           53590 
         3108.2           54260 
         3108.5           54810 
         3108.8           55820 
         3109.1           57820 
         3109.4           61050 
         3109.7           65340 
           3110           70040 
         3110.3           74300 
         3110.6           77290 
         3110.9           78480 
         3111.2           77880 
         3111.5           76020 
         3111.8           73820 
         3112.1           72100 
         3112.4           71560 
         3112.7           72700 
           3113           76130 
         3113.3           82540 
         3113.6           92560 
         3113.9          106200 
         3114.2          122200 
         3114.5          138200 
         3114.8          150700 
         3115.1          156300 
         3115.4          153300 
         3115.7          142000 
           3116          124800 
         3116.3          105500 
         3116.6           87750 
         3116.9           74520 
         3117.2           67190 
         3117.5           65600 
         3117.8           68370 
         3118.1           73520 
         3118.4           79010 
         3118.7           83560 
           3119           87000 
         3119.3           90110 
         3119.6           93960 
         3119.9           98810 
         3120.2          103600 
         3120.5          106100 
         3120.8          104600 
         3121.1           98170 
         3121.4           88140 
         3121.7           76930 
           3122           67230 
         3122.3           60870 
         3122.6           58440 
         3122.9           59410 
         3123.2           62650 
         3123.5           66880 
         3123.8           71020 
         3124.1           74400 
         3124.4           76810 
         3124.7           78580 
           3125           80460 
         3125.3           83360 
         3125.6           88060 
         3125.9           94730 
         3126.2          102500 
         3126.5          109600 
         3126.8          113400 
         3127.1          112200 
         3127.4          105900 
         3127.7           96040 
           3128           85310 
         3128.3           76120 
         3128.6           69710 
         3128.9           66060 
         3129.2           64420 
         3129.5           64050 
         3129.8           64700 
         3130.1           66570 
         3130.4           69970 
         3130.7           74840 
           3131           80400 
         3131.3           85290 
         3131.6           87990 
         3131.9           87500 
         3132.2           83690 
         3132.5           77330 
         3132.8           69860 
         3133.1           62900 
         3133.4           58040 
         3133.7           56490 
           3134           58810 
         3134.3           64510 
         3134.6           72020 
         3134.9           79080 
         3135.2           83690 
         3135.5           84940 
         3135.8           83440 
         3136.1           81080 
         3136.4           80240 
         3136.7           82980 
           3137           90240 
         3137.3          101400 
         3137.6          114500 
         3137.9          126400 
         3138.2          134100 
         3138.5          135800 
         3138.8          131400 
         3139.1          122500 
         3139.4          111500 
         3139.7          100900 
           3140           92360 
         3140.3           86700 
         3140.6           83720 
         3140.9           82530 
         3141.2           82140 
         3141.5           81870 
         3141.8           81380 
         3142.1           80480 
         3142.4           78890 
         3142.7           76420 
           3143           73220 
         3143.3           70000 
         3143.6           67680 
         3143.9           67070 
         3144.2           68420 
         3144.5           71660 
         3144.8           76330 
         3145.1           81710 
         3145.4           86610 
         3145.7           89600 
           3146           89660 
         3146.3           86990 
         3146.6           83310 
         3146.9           81320 
         3147.2           83500 
         3147.5           90980 
         3147.8          102900 
         3148.1          116600 
         3148.4          128600 
         3148.7          135400 
           3149          135300 
         3149.3          128400 
         3149.6          116900 
         3149.9          103800 
         3150.2           91910 
         3150.5           83050 
         3150.8           78160 
         3151.1           77230 
         3151.4           79540 
         3151.7           83880 
           3152           88760 
         3152.3           92740 
         3152.6           94690 
         3152.9           94160 
         3153.2           91530 
         3153.5           87940 
         3153.8           85080 
         3154.1           84400 
         3154.4           86490 
         3154.7           90680 
           3155           95460 
         3155.3           99250 
         3155.6          101300 
         3155.9          101900 
         3156.2          102100 
         3156.5          103700 
         3156.8          107700 
         3157.1          114900 
         3157.4          124600 
         3157.7          135400 
           3158          145700 
         3158.3          154000 
         3158.6          159300 
         3158.9          160800 
         3159.2          157900 
         3159.5          150400 
         3159.8          139100 
         3160.1          125700 
         3160.4          113000 
         3160.7          103900 
           3161          100300 
         3161.3          103400 
         3161.6          113000 
         3161.9          128300 
         3162.2          146700 
         3162.5          164800 
         3162.8          178300 
         3163.1          184300 
         3163.4          181400 
         3163.7          171500 
           3164          158300 
         3164.3          146000 
         3164.6          137600 
         3164.9          135100 
         3165.2          139200 
         3165.5          150700 
         3165.8          169700 
         3166.1          194800 
         3166.4          222600 
         3166.7          247000 
           3167          261700 
         3167.3          262800 
         3167.6          250600 
         3167.9          230800 
         3168.2          211800 
         3168.5          201800 
         3168.8          205600 
         3169.1          222200 
         3169.4          245800 
         3169.7          268200 
           3170          282700 
         3170.3          286900 
         3170.6          283300 
         3170.9          278000 
         3171.2          276500 
         3171.5          281400 
         3171.8          290500 
         3172.1          299000 
         3172.4          301900 
         3172.7          298200 
           3173          290400 
         3173.3          283800 
         3173.6          282100 
         3173.9          285600 
         3174.2          291600 
         3174.5          296400 
         3174.8          298900 
         3175.1          300400 
         3175.4          302800 
         3175.7          306500 
           3176          309300 
         3176.3          307200 
         3176.6          296700 
         3176.9          277800 
         3177.2          254200 
         3177.5          231400 
         3177.8          213500 
         3178.1          201900 
