# Granada HRES Library
# atmosphere = Spectrum  (atmosphere model used)
# feh = -5  (value for [Fe/H] for the model.)
# logg = 4.5 log(cm/s2) (value for Log(G) for the model.)
# teff = 4750 K (value for the effective temperature for the model. Temperatures are given in K)
#
# column 1: WAVELENGTH (ANGSTROM), Wavelength in Angstrom
# column 2: FLUX (ERG/CM2/S/A), Flux in erg/cm2/s/A
         3000.2           44180 
         3000.5           45130 
         3000.8           46440 
         3001.1           48180 
         3001.4           50340 
         3001.7           53170 
           3002           56970 
         3002.3           62220 
         3002.6           69620 
         3002.9           79780 
         3003.2           93210 
         3003.5          109900 
         3003.8          129400 
         3004.1          150500 
         3004.4          171300 
         3004.7          189600 
           3005          203400 
         3005.3          210800 
         3005.6          210800 
         3005.9          203300 
         3006.2          189200 
         3006.5          170400 
         3006.8          149200 
         3007.1          128400 
         3007.4          110200 
         3007.7           96480 
           3008           88620 
         3008.3           87260 
         3008.6           92560 
         3008.9          104200 
         3009.2          121100 
         3009.5          141700 
         3009.8          163500 
         3010.1          183800 
         3010.4          199900 
         3010.7          210200 
           3011          214200 
         3011.3          213000 
         3011.6          208900 
         3011.9          204100 
         3012.2          200300 
         3012.5          198100 
         3012.8          196900 
         3013.1          195700 
         3013.4          193300 
         3013.7          189000 
           3014          182800 
         3014.3          175100 
         3014.6          166800 
         3014.9          158400 
         3015.2          150400 
         3015.5          142700 
         3015.8          135100 
         3016.1          127300 
         3016.4          118900 
         3016.7          110100 
           3017          101000 
         3017.3           91950 
         3017.6           83270 
         3017.9           75160 
         3018.2           67770 
         3018.5           61030 
         3018.8           54950 
         3019.1           49400 
         3019.4           44420 
         3019.7           40160 
           3020           36910 
         3020.3           34970 
         3020.6           34670 
         3020.9           36260 
         3021.2           39740 
         3021.5           44870 
         3021.8           51190 
         3022.1           58040 
         3022.4           64740 
         3022.7           70640 
           3023           75270 
         3023.3           78370 
         3023.6           79950 
         3023.9           80180 
         3024.2           79450 
         3024.5           78430 
         3024.8           78090 
         3025.1           79530 
         3025.4           84060 
         3025.7           93100 
           3026          107600 
         3026.3          127900 
         3026.6          153400 
         3026.9          182800 
         3027.2          213600 
         3027.5          243000 
         3027.8          268100 
         3028.1          286300 
         3028.4          295900 
         3028.7          296400 
           3029          288500 
         3029.3          274200 
         3029.6          256400 
         3029.9          238400 
         3030.2          223400 
         3030.5          214400 
         3030.8          213600 
         3031.1          222600 
         3031.4          241600 
         3031.7          269400 
           3032          303500 
         3032.3          340200 
         3032.6          375400 
         3032.9          405900 
         3033.2          429500 
         3033.5          445300 
         3033.8          453500 
         3034.1          454600 
         3034.4          448800 
         3034.7          435700 
           3035          414600 
         3035.3          385200 
         3035.6          348100 
         3035.9          305300 
         3036.2          260100 
         3036.5          216500 
         3036.8          178700 
         3037.1          149800 
         3037.4          131600 
         3037.7          124300 
           3038          126700 
         3038.3          136400 
         3038.6          150200 
         3038.9          164800 
         3039.2          177600 
         3039.5          186400 
         3039.8          190400 
         3040.1          189600 
         3040.4          185100 
         3040.7          178400 
           3041          171700 
         3041.3          166800 
         3041.6          165900 
         3041.9          170300 
         3042.2          180900 
         3042.5          197300 
         3042.8          217900 
         3043.1          240300 
         3043.4          261500 
         3043.7          278700 
           3044          289800 
         3044.3          293700 
         3044.6          290100 
         3044.9          279700 
         3045.2          263500 
         3045.5          242800 
         3045.8          219100 
         3046.1          193900 
         3046.4          169300 
         3046.7          147200 
           3047          129700 
         3047.3          118500 
         3047.6          114600 
         3047.9          117800 
         3048.2          127200 
         3048.5          140800 
         3048.8          156000 
         3049.1          170800 
         3049.4          183700 
         3049.7          195100 
           3050          206900 
         3050.3          221700 
         3050.6          242100 
         3050.9          269500 
         3051.2          302300 
         3051.5          336700 
         3051.8          367000 
         3052.1          387200 
         3052.4          392800 
         3052.7          382300 
           3053          357900 
         3053.3          324600 
         3053.6          288700 
         3053.9          256200 
         3054.2          231300 
         3054.5          215300 
         3054.8          207100 
         3055.1          203800 
         3055.4          201600 
         3055.7          197300 
           3056          188800 
         3056.3          175500 
         3056.6          158300 
         3056.9          139100 
         3057.2          120100 
         3057.5          103600 
         3057.8           90920 
         3058.1           83230 
         3058.4           81100 
         3058.7           85060 
           3059           95460 
         3059.3          112700 
         3059.6          136800 
         3059.9          167500 
         3060.2          204000 
         3060.5          244500 
         3060.8          286400 
         3061.1          326400 
         3061.4          360900 
         3061.7          386200 
           3062          399200 
         3062.3          398100 
         3062.6          383000 
         3062.9          356100 
         3063.2          321800 
         3063.5          285500 
         3063.8          252600 
         3064.1          226900 
         3064.4          210000 
         3064.7          200800 
           3065          196300 
         3065.3          192500 
         3065.6          186500 
         3065.9          176500 
         3066.2          163400 
         3066.5          149400 
         3066.8          137900 
         3067.1          132400 
         3067.4          134900 
         3067.7          146900 
           3068          167700 
         3068.3          195700 
         3068.6          228900 
         3068.9          265000 
         3069.2          302200 
         3069.5          339600 
         3069.8          376500 
         3070.1          412300 
         3070.4          445900 
         3070.7          475300 
           3071          498300 
         3071.3          512600 
         3071.6          517500 
         3071.9          513700 
         3072.2          503700 
         3072.5          490400 
         3072.8          476100 
         3073.1          461700 
         3073.4          446500 
         3073.7          429600 
           3074          409800 
         3074.3          387400 
         3074.6          364500 
         3074.9          344500 
         3075.2          331800 
         3075.5          329200 
         3075.8          338200 
         3076.1          357500 
         3076.4          383000 
         3076.7          409500 
           3077          431800 
         3077.3          446200 
         3077.6          451500 
         3077.9          448900 
         3078.2          440800 
         3078.5          429900 
         3078.8          417800 
         3079.1          404800 
         3079.4          389900 
         3079.7          371500 
           3080          348700 
         3080.3          321800 
         3080.6          292100 
         3080.9          262000 
         3081.2          234100 
         3081.5          210800 
         3081.8          194200 
         3082.1          185500 
         3082.4          184900 
         3082.7          192700 
           3083          209000 
         3083.3          234200 
         3083.6          268600 
         3083.9          311700 
         3084.2          362100 
         3084.5          416600 
         3084.8          470400 
         3085.1          517300 
         3085.4          551100 
         3085.7          566700 
           3086          562400 
         3086.3          539900 
         3086.6          504200 
         3086.9          462500 
         3087.2          422200 
         3087.5          388800 
         3087.8          364500 
         3088.1          348400 
         3088.4          336900 
         3088.7          325700 
           3089          311200 
         3089.3          291200 
         3089.6          266100 
         3089.9          237800 
         3090.2          209100 
         3090.5          182400 
         3090.8          159100 
         3091.1          140100 
         3091.4          125700 
         3091.7          115800 
           3092          110200 
         3092.3          109100 
         3092.6          112700 
         3092.9          120800 
         3093.2          133200 
         3093.5          148800 
         3093.8          166000 
         3094.1          182900 
         3094.4          197500 
         3094.7          208200 
           3095          213800 
         3095.3          214400 
         3095.6          210400 
         3095.9          203400 
         3096.2          195300 
         3096.5          188100 
         3096.8          182800 
         3097.1          179700 
         3097.4          177700 
         3097.7          175200 
           3098          170400 
         3098.3          162000 
         3098.6          149900 
         3098.9          135000 
         3099.2          119000 
         3099.5          103700 
         3099.8           91260 
         3100.1           83080 
         3100.4           80670 
         3100.7           85090 
           3101           97550 
         3101.3          119000 
         3101.6          149700 
         3101.9          189300 
         3102.2          236300 
         3102.5          287500 
         3102.8          338900 
         3103.1          386200 
         3103.4          425200 
         3103.7          452300 
           3104          465800 
         3104.3          466200 
         3104.6          455600 
         3104.9          438100 
         3105.2          419500 
         3105.5          405300 
         3105.8          400500 
         3106.1          407700 
         3106.4          427200 
         3106.7          457000 
           3107          493300 
         3107.3          532000 
         3107.6          568400 
         3107.9          598700 
         3108.2          619700 
         3108.5          630400 
         3108.8          631700 
         3109.1          626300 
         3109.4          618600 
         3109.7          614000 
           3110          617100 
         3110.3          630200 
         3110.6          652700 
         3110.9          680900 
         3111.2          709100 
         3111.5          731300 
         3111.8          742100 
         3112.1          738300 
         3112.4          719800 
         3112.7          689600 
           3113          652800 
         3113.3          616500 
         3113.6          588000 
         3113.9          573100 
         3114.2          574700 
         3114.5          591500 
         3114.8          617400 
         3115.1          643600 
         3115.4          661000 
         3115.7          661800 
           3116          643100 
         3116.3          606700 
         3116.6          558600 
         3116.9          507300 
         3117.2          460800 
         3117.5          424400 
         3117.8          400600 
         3118.1          388900 
         3118.4          386600 
         3118.7          391100 
           3119          399700 
         3119.3          410900 
         3119.6          423800 
         3119.9          437300 
         3120.2          448900 
         3120.5          455700 
         3120.8          454300 
         3121.1          442600 
         3121.4          421200 
         3121.7          393500 
           3122          364900 
         3122.3          341600 
         3122.6          328300 
         3122.9          327100 
         3123.2          336900 
         3123.5          354000 
         3123.8          372800 
         3124.1          387600 
         3124.4          394700 
         3124.7          392900 
           3125          383600 
         3125.3          370700 
         3125.6          357800 
         3125.9          348100 
         3126.2          342500 
         3126.5          340400 
         3126.8          339800 
         3127.1          339200 
         3127.4          337600 
         3127.7          335200 
           3128          333800 
         3128.3          335200 
         3128.6          341000 
         3128.9          351600 
         3129.2          366100 
         3129.5          382500 
         3129.8          399000 
         3130.1          413900 
         3130.4          426100 
         3130.7          434700 
           3131          438600 
         3131.3          436700 
         3131.6          428200 
         3131.9          413200 
         3132.2          392900 
         3132.5          369800 
         3132.8          347500 
         3133.1          330300 
         3133.4          322700 
         3133.7          327900 
           3134          347300 
         3134.3          379900 
         3134.6          421500 
         3134.9          466100 
         3135.2          507100 
         3135.5          539700 
         3135.8          561100 
         3136.1          571600 
         3136.4          573600 
         3136.7          569500 
           3137          561300 
         3137.3          550400 
         3137.6          537100 
         3137.9          522500 
         3138.2          508400 
         3138.5          497300 
         3138.8          491400 
         3139.1          492100 
         3139.4          499500 
         3139.7          512500 
           3140          528600 
         3140.3          545000 
         3140.6          558200 
         3140.9          564900 
         3141.2          562300 
         3141.5          548500 
         3141.8          523300 
         3142.1          487500 
         3142.4          443300 
         3142.7          394500 
           3143          345100 
         3143.3          299500 
         3143.6          261700 
         3143.9          234800 
         3144.2          220200 
         3144.5          218300 
         3144.8          227500 
         3145.1          245000 
         3145.4          267300 
         3145.7          290300 
           3146          311100 
         3146.3          328500 
         3146.6          343700 
         3146.9          359600 
         3147.2          379400 
         3147.5          406000 
         3147.8          440000 
         3148.1          479100 
         3148.4          518800 
         3148.7          554100 
           3149          580900 
         3149.3          597300 
         3149.6          604000 
         3149.9          603500 
         3150.2          598100 
         3150.5          589700 
         3150.8          578600 
         3151.1          565000 
         3151.4          549500 
         3151.7          534000 
           3152          521400 
         3152.3          515300 
         3152.6          517100 
         3152.9          527100 
         3153.2          542600 
         3153.5          560100 
         3153.8          575700 
         3154.1          586300 
         3154.4          590500 
         3154.7          587400 
           3155          576800 
         3155.3          557800 
         3155.6          530000 
         3155.9          494100 
         3156.2          451200 
         3156.5          404700 
         3156.8          358500 
         3157.1          317000 
         3157.4          283400 
         3157.7          259500 
           3158          245600 
         3158.3          240500 
         3158.6          241500 
         3158.9          245500 
         3159.2          250100 
         3159.5          252700 
         3159.8          252700 
         3160.1          250100 
         3160.4          247000 
         3160.7          245900 
           3161          249900 
         3161.3          261100 
         3161.6          280600 
         3161.9          307500 
         3162.2          339100 
         3162.5          371300 
         3162.8          399500 
         3163.1          419800 
         3163.4          429500 
         3163.7          428700 
           3164          419500 
         3164.3          406200 
         3164.6          393400 
         3164.9          385200 
         3165.2          384400 
         3165.5          391900 
         3165.8          406600 
         3166.1          425800 
         3166.4          446300 
         3166.7          463900 
           3167          474900 
         3167.3          477300 
         3167.6          470200 
         3167.9          456200 
         3168.2          439400 
         3168.5          425700 
         3168.8          420700 
         3169.1          428100 
         3169.4          448500 
         3169.7          479600 
           3170          516600 
         3170.3          554300 
         3170.6          587900 
         3170.9          615200 
         3171.2          635900 
         3171.5          650600 
         3171.8          659800 
         3172.1          663600 
         3172.4          660900 
         3172.7          651000 
           3173          634100 
         3173.3          611600 
         3173.6          586900 
         3173.9          564300 
         3174.2          548600 
         3174.5          544900 
         3174.8          555700 
         3175.1          582100 
         3175.4          621000 
         3175.7          666100 
           3176          708400 
         3176.3          738800 
         3176.6          749700 
         3176.9          738200 
         3177.2          706000 
         3177.5          658200 
         3177.8          601900 
         3178.1          543700 
