# Granada HRES Library
# atmosphere = Spectrum  (atmosphere model used)
# feh = 0  (value for [Fe/H] for the model.)
# logg = 2.5 log(cm/s2) (value for Log(G) for the model.)
# teff = 5000 K (value for the effective temperature for the model. Temperatures are given in K)
#
# column 1: WAVELENGTH (ANGSTROM), Wavelength in Angstrom
# column 2: FLUX (ERG/CM2/S/A), Flux in erg/cm2/s/A
         3000.2           40260 
         3000.5           41310 
         3000.8           43290 
         3001.1           46180 
         3001.4           50320 
         3001.7           55980 
           3002           64400 
         3002.3           77210 
         3002.6           96890 
         3002.9          126200 
         3003.2          167300 
         3003.5          221200 
         3003.8          286500 
         3004.1          359100 
         3004.4          432400 
         3004.7          498100 
           3005          548000 
         3005.3          575200 
         3005.6          575700 
         3005.9          549000 
         3006.2          498900 
         3006.5          432300 
         3006.8          358500 
         3007.1          287000 
         3007.4          226000 
         3007.7          181400 
           3008          156300 
         3008.3          151900 
         3008.6          167500 
         3008.9          201700 
         3009.2          251700 
         3009.5          312700 
         3009.8          378000 
         3010.1          438700 
         3010.4          486700 
         3010.7          515600 
           3011          524500 
         3011.3          516900 
         3011.6          501000 
         3011.9          485200 
         3012.2          475600 
         3012.5          473900 
         3012.8          478300 
         3013.1          484600 
         3013.4          488800 
         3013.7          488200 
           3014          482200 
         3014.3          471200 
         3014.6          456200 
         3014.9          438400 
         3015.2          418500 
         3015.5          396600 
         3015.8          372700 
         3016.1          346100 
         3016.4          316600 
         3016.7          284000 
           3017          249200 
         3017.3          213700 
         3017.6          179100 
         3017.9          147300 
         3018.2          119300 
         3018.5           95690 
         3018.8           75960 
         3019.1           59820 
         3019.4           46850 
         3019.7           36830 
           3020           29800 
         3020.3           25860 
         3020.6           25510 
         3020.9           29140 
         3021.2           37140 
         3021.5           49570 
         3021.8           66030 
         3022.1           85590 
         3022.4          106700 
         3022.7          127600 
           3023          146200 
         3023.3          161000 
         3023.6          171500 
         3023.9          177200 
         3024.2          178400 
         3024.5          176300 
         3024.8          173100 
         3025.1          172800 
         3025.4          180300 
         3025.7          201000 
           3026          239400 
         3026.3          297200 
         3026.6          372300 
         3026.9          458900 
         3027.2          548400 
         3027.5          631200 
         3027.8          698300 
         3028.1          742500 
         3028.4          760200 
         3028.7          751900 
           3029          722000 
         3029.3          677500 
         3029.6          626400 
         3029.9          576500 
         3030.2          533700 
         3030.5          503200 
         3030.8          489000 
         3031.1          494900 
         3031.4          522900 
         3031.7          571300 
           3032          634600 
         3032.3          704000 
         3032.6          770500 
         3032.9          826600 
         3033.2          868600 
         3033.5          896400 
         3033.8          912300 
         3034.1          918600 
         3034.4          915500 
         3034.7          900800 
           3035          870400 
         3035.3          820000 
         3035.6          748100 
         3035.9          656800 
         3036.2          553500 
         3036.5          448800 
         3036.8          354600 
         3037.1          281300 
         3037.4          236000 
         3037.7          221400 
           3038          235200 
         3038.3          271400 
         3038.6          321300 
         3038.9          375300 
         3039.2          424100 
         3039.5          460700 
         3039.8          481300 
         3040.1          484900 
         3040.4          473900 
         3040.7          452600 
           3041          426600 
         3041.3          402400 
         3041.6          385900 
         3041.9          382900 
         3042.2          396100 
         3042.5          425200 
         3042.8          466100 
         3043.1          511700 
         3043.4          554100 
         3043.7          586800 
           3044          606200 
         3044.3          611100 
         3044.6          602200 
         3044.9          581400 
         3045.2          550000 
         3045.5          509400 
         3045.8          460600 
         3046.1          405700 
         3046.4          348200 
         3046.7          293200 
           3047          247300 
         3047.3          217000 
         3047.6          207000 
         3047.9          219300 
         3048.2          251500 
         3048.5          297600 
         3048.8          348500 
         3049.1          395100 
         3049.4          431100 
         3049.7          455400 
           3050          473000 
         3050.3          493900 
         3050.6          528400 
         3050.9          582400 
         3051.2          654700 
         3051.5          735200 
         3051.8          807900 
         3052.1          856200 
         3052.4          868100 
         3052.7          839900 
           3053          778000 
         3053.3          696800 
         3053.6          613700 
         3053.9          544600 
         3054.2          499900 
         3054.5          482100 
         3054.8          486000 
         3055.1          501000 
         3055.4          514400 
         3055.7          514700 
           3056          494900 
         3056.3          453600 
         3056.6          395200 
         3056.9          327900 
         3057.2          260900 
         3057.5          202000 
         3057.8          156800 
         3058.1          128200 
         3058.4          117200 
         3058.7          124500 
           3059          151300 
         3059.3          198000 
         3059.6          264400 
         3059.9          347900 
         3060.2          442900 
         3060.5          541300 
         3060.8          633500 
         3061.1          709900 
         3061.4          762900 
         3061.7          787600 
           3062          782800 
         3062.3          750500 
         3062.6          695700 
         3062.9          626400 
         3063.2          552300 
         3063.5          483600 
         3063.8          428500 
         3064.1          391900 
         3064.4          373700 
         3064.7          369200 
           3065          370800 
         3065.3          369600 
         3065.6          359900 
         3065.9          340000 
         3066.2          313300 
         3066.5          287700 
         3066.8          273300 
         3067.1          279100 
         3067.4          311500 
         3067.7          371600 
           3068          456100 
         3068.3          556500 
         3068.6          660900 
         3068.9          757300 
         3069.2          835600 
         3069.5          889900 
         3069.8          920000 
         3070.1          929300 
         3070.4          923000 
         3070.7          906000 
           3071          880900 
         3071.3          849300 
         3071.6          813100 
         3071.9          776400 
         3072.2          744500 
         3072.5          723100 
         3072.8          713800 
         3073.1          714600 
         3073.4          719200 
         3073.7          719400 
           3074          709500 
         3074.3          688000 
         3074.6          658600 
         3074.9          630900 
         3075.2          615300 
         3075.5          620900 
         3075.8          650200 
         3076.1          698400 
         3076.4          754200 
         3076.7          804400 
           3077          837200 
         3077.3          847100 
         3077.6          836100 
         3077.9          811600 
         3078.2          783700 
         3078.5          761500 
         3078.8          750300 
         3079.1          749700 
         3079.4          755500 
         3079.7          760200 
           3080          757200 
         3080.3          741900 
         3080.6          713500 
         3080.9          675000 
         3081.2          631100 
         3081.5          588600 
         3081.8          553500 
         3082.1          531000 
         3082.4          524400 
         3082.7          535400 
           3083          565900 
         3083.3          617900 
         3083.6          691900 
         3083.9          786300 
         3084.2          895800 
         3084.5        1.011e+6 
         3084.8        1.117e+6 
         3085.1        1.201e+6 
         3085.4         1.25e+6 
         3085.7        1.253e+6 
           3086        1.209e+6 
         3086.3        1.124e+6 
         3086.6        1.011e+6 
         3086.9          888400 
         3087.2          775300 
         3087.5          685700 
         3087.8          626600 
         3088.1          596600 
         3088.4          587800 
         3088.7          588100 
           3089          586400 
         3089.3          575900 
         3089.6          555500 
         3089.9          528500 
         3090.2          499900 
         3090.5          474200 
         3090.8          454500 
         3091.1          440800 
         3091.4          430900 
         3091.7          421600 
           3092          410400 
         3092.3          397000 
         3092.6          384200 
         3092.9          377400 
         3093.2          381900 
         3093.5          400100 
         3093.8          430700 
         3094.1          467900 
         3094.4          503400 
         3094.7          528800 
           3095          538400 
         3095.3          530700 
         3095.6          509200 
         3095.9          481000 
         3096.2          454800 
         3096.5          437600 
         3096.8          433200 
         3097.1          439600 
         3097.4          450800 
         3097.7          457400 
           3098          450900 
         3098.3          426300 
         3098.6          383700 
         3098.9          328100 
         3099.2          267500 
         3099.5          210300 
         3099.8          163100 
         3100.1          130200 
         3100.4          113600 
         3100.7          114600 
           3101          133800 
         3101.3          172000 
         3101.6          229100 
         3101.9          303300 
         3102.2          389900 
         3102.5          481300 
         3102.8          568300 
         3103.1          642500 
         3103.4          697200 
         3103.7          730000 
           3104          741100 
         3104.3          734900 
         3104.6          718300 
         3104.9          699800 
         3105.2          688000 
         3105.5          690400 
         3105.8          711100 
         3106.1          749900 
         3106.4          802500 
         3106.7          862400 
           3107          922500 
         3107.3          976500 
         3107.6        1.021e+6 
         3107.9        1.053e+6 
         3108.2        1.071e+6 
         3108.5        1.075e+6 
         3108.8        1.063e+6 
         3109.1         1.04e+6 
         3109.4         1.01e+6 
         3109.7          981400 
           3110          963800 
         3110.3          964900 
         3110.6          987000 
         3110.9        1.027e+6 
         3111.2        1.075e+6 
         3111.5        1.119e+6 
         3111.8        1.146e+6 
         3112.1        1.149e+6 
         3112.4        1.123e+6 
         3112.7        1.072e+6 
           3113        1.005e+6 
         3113.3          934500 
         3113.6          873400 
         3113.9          832500 
         3114.2          815900 
         3114.5          822400 
         3114.8          844200 
         3115.1          870600 
         3115.4          890300 
         3115.7          894900 
           3116          879900 
         3116.3          846000 
         3116.6          798100 
         3116.9          742300 
         3117.2          685100 
         3117.5          631900 
         3117.8          586400 
         3118.1          550500 
         3118.4          524500 
         3118.7          507700 
           3119          499800 
         3119.3          501500 
         3119.6          513500 
         3119.9          535600 
         3120.2          565100 
         3120.5          595800 
         3120.8          620000 
         3121.1          630700 
         3121.4          624600 
         3121.7          604600 
           3122          578400 
         3122.3          556100 
         3122.6          546800 
         3122.9          555500 
         3123.2          581200 
         3123.5          618100 
         3123.8          656200 
         3124.1          685900 
         3124.4          700900 
         3124.7          700900 
           3125          692300 
         3125.3          684600 
         3125.6          687500 
         3125.9          706800 
         3126.2          742500 
         3126.5          788100 
         3126.8          833600 
         3127.1          869000 
         3127.4          886400 
         3127.7          883600 
           3128          863300 
         3128.3          832400 
         3128.6          798500 
         3128.9          767600 
         3129.2          742000 
         3129.5          721500 
         3129.8          703800 
         3130.1          687700 
         3130.4          673200 
         3130.7          660200 
           3131          649200 
         3131.3          638800 
         3131.6          627000 
         3131.9          611100 
         3132.2          590200 
         3132.5          564700 
         3132.8          537300 
         3133.1          512100 
         3133.4          494900 
         3133.7          492400 
           3134          509200 
         3134.3          545900 
         3134.6          598500 
         3134.9          658100 
         3135.2          714000 
         3135.5          757200 
         3135.8          783200 
         3136.1          793300 
         3136.4          792100 
         3136.7          785900 
           3137          778300 
         3137.3          770700 
         3137.6          763000 
         3137.9          755200 
         3138.2          748700 
         3138.5          746100 
         3138.8          750200 
         3139.1          763800 
         3139.4          787900 
         3139.7          822300 
           3140          864900 
         3140.3          911500 
         3140.6          955100 
         3140.9          987500 
         3141.2        1.001e+6 
         3141.5          990700 
         3141.8          953900 
         3142.1          892300 
         3142.4          810500 
         3142.7          714900 
           3143          613300 
         3143.3          513600 
         3143.6          424200 
         3143.9          352100 
         3144.2          302700 
         3144.5          278200 
         3144.8          277100 
         3145.1          295400 
         3145.4          326200 
         3145.7          361900 
           3146          396600 
         3146.3          427300 
         3146.6          455200 
         3146.9          485000 
         3147.2          522500 
         3147.5          571800 
         3147.8          633600 
         3148.1          705200 
         3148.4          779200 
         3148.7          847800 
           3149          905400 
         3149.3          949200 
         3149.6          980600 
         3149.9        1.003e+6 
         3150.2        1.019e+6 
         3150.5        1.028e+6 
         3150.8        1.029e+6 
         3151.1        1.019e+6 
         3151.4        1.001e+6 
         3151.7          978200 
           3152          956200 
         3152.3          940600 
         3152.6          934700 
         3152.9          936500 
         3153.2          941200 
         3153.5          942100 
         3153.8          935300 
         3154.1          919600 
         3154.4          897500 
         3154.7          872400 
           3155          846000 
         3155.3          817400 
         3155.6          784000 
         3155.9          742000 
         3156.2          689200 
         3156.5          626500 
         3156.8          557800 
         3157.1          489600 
         3157.4          428400 
         3157.7          379800 
           3158          346900 
         3158.3          329500 
         3158.6          325100 
         3158.9          330000 
         3159.2          339200 
         3159.5          348400 
         3159.8          353500 
         3160.1          353800 
         3160.4          349900 
         3160.7          345500 
           3161          345000 
         3161.3          353400 
         3161.6          373700 
         3161.9          406600 
         3162.2          450100 
         3162.5          498800 
         3162.8          545800 
         3163.1          584000 
         3163.4          608100 
         3163.7          615800 
           3164          609600 
         3164.3          595800 
         3164.6          582300 
         3164.9          576600 
         3165.2          583500 
         3165.5          604300 
         3165.8          636100 
         3166.1          673800 
         3166.4          709700 
         3166.7          736600 
           3167          748300 
         3167.3          741800 
         3167.6          719300 
         3167.9          686800 
         3168.2          654500 
         3168.5          633700 
         3168.8          633500 
         3169.1          658200 
         3169.4          706000 
         3169.7          770000 
           3170          840000 
         3170.3          907000 
         3170.6          964900 
         3170.9        1.013e+6 
         3171.2        1.052e+6 
         3171.5        1.087e+6 
         3171.8        1.118e+6 
         3172.1        1.142e+6 
         3172.4        1.156e+6 
         3172.7        1.155e+6 
           3173        1.136e+6 
         3173.3        1.103e+6 
         3173.6        1.061e+6 
         3173.9        1.018e+6 
         3174.2          985300 
         3174.5          969000 
         3174.8          976000 
         3175.1        1.008e+6 
         3175.4         1.06e+6 
         3175.7        1.124e+6 
           3176        1.184e+6 
         3176.3        1.225e+6 
         3176.6        1.236e+6 
         3176.9        1.211e+6 
         3177.2        1.152e+6 
         3177.5        1.069e+6 
         3177.8          973300 
         3178.1          874900 
