# Granada HRES Library
# atmosphere = Phoenix  (atmosphere model used)
# feh = -10  (value for [Fe/H] for the model.)
# logg = 3 log(cm/s2) (value for Log(G) for the model.)
# teff = 3500 K (value for the effective temperature for the model. Temperatures are given in K)
#
# column 1: WAVELENGTH (ANGSTROM), Wavelength in Angstrom
# column 2: FLUX (ERG/CM2/S/A), Flux in erg/cm2/s/A
         3000.2           485.1 
         3000.5           439.6 
         3000.8           409.1 
         3001.1           391.9 
         3001.4           382.3 
         3001.7           373.6 
           3002           362.8 
         3002.3           354.2 
         3002.6           358.2 
         3002.9           387.3 
         3003.2           450.9 
         3003.5           550.5 
         3003.8           679.5 
         3004.1           824.1 
         3004.4             967 
         3004.7            1091 
           3005            1185 
         3005.3            1237 
         3005.6            1243 
         3005.9            1202 
         3006.2            1120 
         3006.5            1007 
         3006.8           884.5 
         3007.1             770 
         3007.4           681.3 
         3007.7           629.1 
           3008           617.2 
         3008.3           644.3 
         3008.6           707.5 
         3008.9           805.4 
         3009.2           936.7 
         3009.5            1096 
         3009.8            1263 
         3010.1            1413 
         3010.4            1512 
         3010.7            1540 
           3011            1501 
         3011.3            1421 
         3011.6            1337 
         3011.9            1279 
         3012.2            1254 
         3012.5            1255 
         3012.8            1262 
         3013.1            1260 
         3013.4            1242 
         3013.7            1212 
           3014            1176 
         3014.3            1140 
         3014.6            1110 
         3014.9            1091 
         3015.2            1083 
         3015.5            1086 
         3015.8            1093 
         3016.1            1097 
         3016.4            1090 
         3016.7            1068 
           3017            1029 
         3017.3           979.6 
         3017.6             926 
         3017.9           873.8 
         3018.2           822.1 
         3018.5           766.3 
         3018.8           701.9 
         3019.1           627.6 
         3019.4             546 
         3019.7           463.4 
           3020           388.3 
         3020.3           330.7 
         3020.6           301.1 
         3020.9           307.5 
         3021.2           352.7 
         3021.5           432.1 
         3021.8           534.5 
         3022.1           643.2 
         3022.4           739.6 
         3022.7           806.9 
           3023           834.7 
         3023.3             823 
         3023.6           781.8 
         3023.9           727.9 
         3024.2           677.4 
         3024.5           638.6 
         3024.8           611.7 
         3025.1           593.6 
         3025.4             584 
         3025.7           588.3 
           3026           613.2 
         3026.3             660 
         3026.6           720.7 
         3026.9           781.8 
         3027.2           832.5 
         3027.5           871.6 
         3027.8             909 
         3028.1           959.9 
         3028.4            1036 
         3028.7            1134 
           3029            1241 
         3029.3            1335 
         3029.6            1394 
         3029.9            1412 
         3030.2            1395 
         3030.5            1365 
         3030.8            1346 
         3031.1            1364 
         3031.4            1430 
         3031.7            1533 
           3032            1641 
         3032.3            1710 
         3032.6            1707 
         3032.9            1622 
         3033.2            1479 
         3033.5            1321 
         3033.8            1195 
         3034.1            1133 
         3034.4            1140 
         3034.7            1196 
           3035            1267 
         3035.3            1313 
         3035.6            1311 
         3035.9            1251 
         3036.2            1145 
         3036.5            1017 
         3036.8           895.2 
         3037.1           811.1 
         3037.4           784.2 
         3037.7           819.9 
           3038             907 
         3038.3            1023 
         3038.6            1143 
         3038.9            1246 
         3039.2            1320 
         3039.5            1361 
         3039.8            1364 
         3040.1            1328 
         3040.4            1257 
         3040.7            1164 
           3041            1071 
         3041.3            1001 
         3041.6           976.4 
         3041.9            1009 
         3042.2            1092 
         3042.5            1205 
         3042.8            1323 
         3043.1            1420 
         3043.4            1484 
         3043.7            1517 
           3044            1528 
         3044.3            1532 
         3044.6            1541 
         3044.9            1560 
         3045.2            1583 
         3045.5            1594 
         3045.8            1571 
         3046.1            1497 
         3046.4            1369 
         3046.7            1201 
           3047            1023 
         3047.3           870.6 
         3047.6           771.9 
         3047.9           742.9 
         3048.2           785.3 
         3048.5           886.8 
         3048.8            1023 
         3049.1            1160 
         3049.4            1263 
         3049.7            1308 
           3050            1294 
         3050.3            1240 
         3050.6            1179 
         3050.9            1140 
         3051.2            1138 
         3051.5            1170 
         3051.8            1219 
         3052.1            1266 
         3052.4            1289 
         3052.7            1274 
           3053            1219 
         3053.3            1136 
         3053.6            1045 
         3053.9           969.8 
         3054.2           929.6 
         3054.5             929 
         3054.8           959.3 
         3055.1            1002 
         3055.4            1035 
         3055.7            1045 
           3056            1028 
         3056.3             988 
         3056.6           936.9 
         3056.9             886 
         3057.2           843.1 
         3057.5           810.6 
         3057.8           785.9 
         3058.1           764.5 
         3058.4           746.9 
         3058.7           741.2 
           3059           761.6 
         3059.3           821.8 
         3059.6             927 
         3059.9            1070 
         3060.2            1232 
         3060.5            1390 
         3060.8            1523 
         3061.1            1616 
         3061.4            1663 
         3061.7            1663 
           3062            1614 
         3062.3            1513 
         3062.6            1360 
         3062.9            1165 
         3063.2           950.9 
         3063.5           749.1 
         3063.8           587.4 
         3064.1           481.6 
         3064.4           431.3 
         3064.7             423 
           3065           437.8 
         3065.3           459.5 
         3065.6           479.3 
         3065.9           495.5 
         3066.2           510.7 
         3066.5           527.2 
         3066.8           544.6 
         3067.1           561.3 
         3067.4           577.2 
         3067.7           594.9 
           3068           617.4 
         3068.3           644.5 
         3068.6             671 
         3068.9           688.7 
         3069.2           691.2 
         3069.5           680.4 
         3069.8           668.2 
         3070.1           673.4 
         3070.4           713.1 
         3070.7           794.6 
           3071           912.3 
         3071.3            1051 
         3071.6            1196 
         3071.9            1335 
         3072.2            1465 
         3072.5            1578 
         3072.8            1666 
         3073.1            1721 
         3073.4            1743 
         3073.7            1740 
           3074            1724 
         3074.3            1704 
         3074.6            1686 
         3074.9            1679 
         3075.2            1694 
         3075.5            1747 
         3075.8            1843 
         3076.1            1967 
         3076.4            2084 
         3076.7            2159 
           3077            2170 
         3077.3            2118 
         3077.6            2024 
         3077.9            1915 
         3078.2            1815 
         3078.5            1730 
         3078.8            1653 
         3079.1            1565 
         3079.4            1456 
         3079.7            1323 
           3080            1176 
         3080.3            1027 
         3080.6           889.1 
         3080.9           768.2 
         3081.2           670.1 
         3081.5           600.1 
         3081.8           561.6 
         3082.1             553 
         3082.4           566.6 
         3082.7           592.1 
           3083           622.4 
         3083.3           657.4 
         3083.6           701.8 
         3083.9           759.5 
         3084.2             830 
         3084.5           908.5 
         3084.8           988.9 
         3085.1            1065 
         3085.4            1130 
         3085.7            1176 
           3086            1202 
         3086.3            1221 
         3086.6            1257 
         3086.9            1337 
         3087.2            1478 
         3087.5            1669 
         3087.8            1873 
         3088.1            2035 
         3088.4            2099 
         3088.7            2037 
           3089            1854 
         3089.3            1590 
         3089.6            1299 
         3089.9            1034 
         3090.2           824.8 
         3090.5           679.3 
         3090.8             588 
         3091.1           533.4 
         3091.4           498.7 
         3091.7           472.8 
           3092           453.5 
         3092.3           446.3 
         3092.6           461.6 
         3092.9           507.2 
         3093.2           582.7 
         3093.5           677.2 
         3093.8             773 
         3094.1           851.5 
         3094.4           900.1 
         3094.7           914.4 
           3095           897.5 
         3095.3           859.3 
         3095.6           816.4 
         3095.9           791.7 
         3096.2           810.4 
         3096.5           890.6 
         3096.8            1031 
         3097.1            1206 
         3097.4            1368 
         3097.7            1465 
           3098            1463 
         3098.3            1361 
         3098.6            1189 
         3098.9           996.1 
         3099.2           831.4 
         3099.5           726.2 
         3099.8           688.4 
         3100.1           703.8 
         3100.4           745.3 
         3100.7           786.1 
           3101           811.4 
         3101.3           841.9 
         3101.6           887.4 
         3101.9           975.4 
         3102.2            1107 
         3102.5            1271 
         3102.8            1446 
         3103.1            1611 
         3103.4            1747 
         3103.7            1832 
           3104            1855 
         3104.3            1803 
         3104.6            1678 
         3104.9            1495 
         3105.2            1289 
         3105.5            1096 
         3105.8           950.2 
         3106.1           868.1 
         3106.4           853.6 
         3106.7           898.8 
           3107           987.2 
         3107.3            1096 
         3107.6            1201 
         3107.9            1277 
         3108.2            1312 
         3108.5            1312 
         3108.8            1302 
         3109.1            1312 
         3109.4            1369 
         3109.7            1480 
           3110            1634 
         3110.3            1800 
         3110.6            1939 
         3110.9            2019 
         3111.2            2020 
         3111.5            1946 
         3111.8            1823 
         3112.1            1685 
         3112.4            1569 
         3112.7            1502 
           3113            1503 
         3113.3            1587 
         3113.6            1763 
         3113.9            2031 
         3114.2            2372 
         3114.5            2746 
         3114.8            3088 
         3115.1            3326 
         3115.4            3400 
         3115.7            3287 
           3116            3015 
         3116.3            2654 
         3116.6            2308 
         3116.9            2069 
         3117.2            2002 
         3117.5            2114 
         3117.8            2357 
         3118.1            2657 
         3118.4            2930 
         3118.7            3123 
           3119            3223 
         3119.3            3257 
         3119.6            3271 
         3119.9            3294 
         3120.2            3315 
         3120.5            3285 
         3120.8            3141 
         3121.1            2853 
         3121.4            2451 
         3121.7            2018 
           3122            1653 
         3122.3            1430 
         3122.6            1366 
         3122.9            1429 
         3123.2            1558 
         3123.5            1689 
         3123.8            1791 
         3124.1            1858 
         3124.4            1908 
         3124.7            1965 
           3125            2042 
         3125.3            2135 
         3125.6            2227 
         3125.9            2307 
         3126.2            2369 
         3126.5            2407 
         3126.8            2404 
         3127.1            2339 
         3127.4            2201 
         3127.7            2006 
           3128            1788 
         3128.3            1589 
         3128.6            1434 
         3128.9            1336 
         3129.2            1300 
         3129.5            1327 
         3129.8            1422 
         3130.1            1596 
         3130.4            1854 
         3130.7            2182 
           3131            2540 
         3131.3            2852 
         3131.6            3040 
         3131.9            3054 
         3132.2            2898 
         3132.5            2623 
         3132.8            2310 
         3133.1            2032 
         3133.4            1835 
         3133.7            1748 
           3134            1776 
         3134.3            1898 
         3134.6            2063 
         3134.9            2200 
         3135.2            2252 
         3135.5            2202 
         3135.8            2085 
         3136.1            1967 
         3136.4            1922 
         3136.7            2000 
           3137            2213 
         3137.3            2529 
         3137.6            2879 
         3137.9            3181 
         3138.2            3366 
         3138.5            3404 
         3138.8            3315 
         3139.1            3152 
         3139.4            2973 
         3139.7            2829 
           3140            2742 
         3140.3            2713 
         3140.6            2719 
         3140.9            2733 
         3141.2            2740 
         3141.5            2738 
         3141.8            2736 
         3142.1            2729 
         3142.4            2698 
         3142.7            2626 
           3143            2515 
         3143.3            2397 
         3143.6            2310 
         3143.9            2270 
         3144.2            2263 
         3144.5            2256 
         3144.8            2223 
         3145.1            2152 
         3145.4            2046 
         3145.7            1911 
           3146            1765 
         3146.3            1631 
         3146.6            1554 
         3146.9            1585 
         3147.2            1761 
         3147.5            2089 
         3147.8            2536 
         3148.1            3022 
         3148.4            3440 
         3148.7            3687 
           3149            3699 
         3149.3            3485 
         3149.6            3121 
         3149.9            2709 
         3150.2            2339 
         3150.5            2056 
         3150.8            1868 
         3151.1            1761 
         3151.4            1714 
         3151.7            1717 
           3152            1759 
         3152.3            1826 
         3152.6            1897 
         3152.9            1955 
         3153.2            1994 
         3153.5            2029 
         3153.8            2088 
         3154.1            2197 
         3154.4            2351 
         3154.7            2509 
           3155            2624 
         3155.3            2666 
         3155.6            2649 
         3155.9            2625 
         3156.2            2657 
         3156.5            2787 
         3156.8            3026 
         3157.1            3349 
         3157.4            3709 
         3157.7            4063 
           3158            4379 
         3158.3            4640 
         3158.6            4830 
         3158.9            4924 
         3159.2            4884 
         3159.5            4685 
         3159.8            4347 
         3160.1            3953 
         3160.4            3617 
         3160.7            3440 
           3161            3466 
         3161.3            3677 
         3161.6            4018 
         3161.9            4432 
         3162.2            4874 
         3162.5            5297 
         3162.8            5641 
         3163.1            5854 
         3163.4            5917 
         3163.7            5864 
           3164            5761 
         3164.3            5667 
         3164.6            5607 
         3164.9            5591 
         3165.2            5639 
         3165.5            5795 
         3165.8            6114 
         3166.1            6630 
         3166.4            7307 
         3166.7            8039 
           3167            8660 
         3167.3            9010 
         3167.6            9007 
         3167.9            8696 
         3168.2            8257 
         3168.5            7928 
         3168.8            7888 
         3169.1            8166 
         3169.4            8617 
         3169.7            8993 
           3170            9081 
         3170.3            8808 
         3170.6            8271 
         3170.9            7677 
         3171.2            7225 
         3171.5            7005 
         3171.8            6974 
         3172.1            7000 
         3172.4            6964 
         3172.7            6844 
           3173            6733 
         3173.3            6791 
         3173.6            7137 
         3173.9            7785 
         3174.2            8639 
         3174.5            9548 
         3174.8           10370 
         3175.1           11030 
         3175.4           11440 
         3175.7           11560 
           3176           11340 
         3176.3           10790 
         3176.6           10000 
         3176.9            9153 
         3177.2            8430 
         3177.5            8001 
         3177.8            7915 
         3178.1            8068 
