# Granada HRES Library
# atmosphere = Phoenix  (atmosphere model used)
# feh = -10  (value for [Fe/H] for the model.)
# logg = 2 log(cm/s2) (value for Log(G) for the model.)
# teff = 4000 K (value for the effective temperature for the model. Temperatures are given in K)
#
# column 1: WAVELENGTH (ANGSTROM), Wavelength in Angstrom
# column 2: FLUX (ERG/CM2/S/A), Flux in erg/cm2/s/A
         3000.2            1502 
         3000.5            1360 
         3000.8            1266 
         3001.1            1215 
         3001.4            1189 
         3001.7            1167 
           3002            1140 
         3002.3            1124 
         3002.6            1154 
         3002.9            1277 
         3003.2            1526 
         3003.5            1909 
         3003.8            2406 
         3004.1            2968 
         3004.4            3537 
         3004.7            4051 
           3005            4461 
         3005.3            4725 
         3005.6            4813 
         3005.9            4706 
         3006.2            4412 
         3006.5            3971 
         3006.8            3452 
         3007.1            2941 
         3007.4            2517 
         3007.7            2241 
           3008            2138 
         3008.3            2206 
         3008.6            2423 
         3008.9            2769 
         3009.2            3219 
         3009.5            3734 
         3009.8            4248 
         3010.1            4667 
         3010.4            4902 
         3010.7            4910 
           3011            4735 
         3011.3            4487 
         3011.6            4301 
         3011.9            4260 
         3012.2            4366 
         3012.5            4540 
         3012.8            4676 
         3013.1            4699 
         3013.4            4596 
         3013.7            4410 
           3014            4206 
         3014.3            4040 
         3014.6            3941 
         3014.9            3908 
         3015.2            3921 
         3015.5            3952 
         3015.8            3974 
         3016.1            3968 
         3016.4            3917 
         3016.7            3808 
           3017            3640 
         3017.3            3425 
         3017.6            3189 
         3017.9            2953 
         3018.2            2719 
         3018.5            2476 
         3018.8            2212 
         3019.1            1925 
         3019.4            1626 
         3019.7            1337 
           3020            1086 
         3020.3           901.3 
         3020.6           815.1 
         3020.9           849.7 
         3021.2            1012 
         3021.5            1286 
         3021.8            1638 
         3022.1            2013 
         3022.4            2347 
         3022.7            2587 
           3023            2697 
         3023.3            2676 
         3023.6            2559 
         3023.9            2402 
         3024.2            2254 
         3024.5            2139 
         3024.8            2052 
         3025.1            1984 
         3025.4            1939 
         3025.7            1948 
           3026            2046 
         3026.3            2249 
         3026.6            2537 
         3026.9            2870 
         3027.2            3207 
         3027.5            3538 
         3027.8            3887 
         3028.1            4285 
         3028.4            4744 
         3028.7            5222 
           3029            5631 
         3029.3            5869 
         3029.6            5867 
         3029.9            5631 
         3030.2            5249 
         3030.5            4886 
         3030.8            4733 
         3031.1            4945 
         3031.4            5568 
         3031.7            6496 
           3032            7482 
         3032.3            8216 
         3032.6            8452 
         3032.9            8123 
         3033.2            7349 
         3033.5            6392 
         3033.8            5526 
         3034.1            4949 
         3034.4            4718 
         3034.7            4751 
           3035            4881 
         3035.3            4938 
         3035.6            4808 
         3035.9            4463 
         3036.2            3958 
         3036.5            3390 
         3036.8            2868 
         3037.1            2490 
         3037.4            2311 
         3037.7            2348 
           3038            2567 
         3038.3            2909 
         3038.6            3309 
         3038.9            3711 
         3039.2            4072 
         3039.5            4352 
         3039.8            4512 
         3040.1            4523 
         3040.4            4385 
         3040.7            4130 
           3041            3824 
         3041.3            3548 
         3041.6            3386 
         3041.9            3401 
         3042.2            3610 
         3042.5            3986 
         3042.8            4468 
         3043.1            4985 
         3043.4            5477 
         3043.7            5902 
           3044            6223 
         3044.3            6412 
         3044.6            6461 
         3044.9            6380 
         3045.2            6193 
         3045.5            5917 
         3045.8            5544 
         3046.1            5058 
         3046.4            4460 
         3046.7            3797 
           3047            3157 
         3047.3            2643 
         3047.6            2341 
         3047.9            2297 
         3048.2            2509 
         3048.5            2925 
         3048.8            3454 
         3049.1            3972 
         3049.4            4357 
         3049.7            4525 
           3050            4477 
         3050.3            4299 
         3050.6            4128 
         3050.9            4089 
         3051.2            4246 
         3051.5            4580 
         3051.8            4998 
         3052.1            5365 
         3052.4            5550 
         3052.7            5470 
           3053            5129 
         3053.3            4617 
         3053.6            4067 
         3053.9            3611 
         3054.2            3328 
         3054.5            3238 
         3054.8            3303 
         3055.1            3449 
         3055.4            3592 
         3055.7            3659 
           3056            3614 
         3056.3            3462 
         3056.6            3239 
         3056.9            2993 
         3057.2            2766 
         3057.5            2579 
         3057.8            2429 
         3058.1            2303 
         3058.4            2198 
         3058.7            2144 
           3059            2200 
         3059.3            2430 
         3059.6            2876 
         3059.9            3535 
         3060.2            4357 
         3060.5            5257 
         3060.8            6149 
         3061.1            6957 
         3061.4            7620 
         3061.7            8080 
           3062            8258 
         3062.3            8069 
         3062.6            7465 
         3062.9            6497 
         3063.2            5325 
         3063.5            4176 
         3063.8            3253 
         3064.1            2673 
         3064.4            2434 
         3064.7            2446 
           3065            2578 
         3065.3            2715 
         3065.6            2787 
         3065.9            2786 
         3066.2            2749 
         3066.5            2728 
         3066.8            2773 
         3067.1            2913 
         3067.4            3167 
         3067.7            3537 
           3068            4004 
         3068.3            4508 
         3068.6            4950 
         3068.9            5223 
         3069.2            5270 
         3069.5            5136 
         3069.8            4976 
         3070.1            5005 
         3070.4            5398 
         3070.7            6202 
           3071            7291 
         3071.3            8427 
         3071.6            9358 
         3071.9            9935 
         3072.2           10150 
         3072.5           10100 
         3072.8            9899 
         3073.1            9663 
         3073.4            9459 
         3073.7            9317 
           3074            9229 
         3074.3            9161 
         3074.6            9106 
         3074.9            9135 
         3075.2            9414 
         3075.5           10120 
         3075.8           11290 
         3076.1           12760 
         3076.4           14140 
         3076.7           15020 
           3077           15150 
         3077.3           14540 
         3077.6           13440 
         3077.9           12190 
         3078.2           11090 
         3078.5           10280 
         3078.8            9727 
         3079.1            9274 
         3079.4            8750 
         3079.7            8049 
           3080            7169 
         3080.3            6189 
         3080.6            5226 
         3080.9            4401 
         3081.2            3810 
         3081.5            3512 
         3081.8            3506 
         3082.1            3732 
         3082.4            4084 
         3082.7            4463 
           3083            4824 
         3083.3            5199 
         3083.6            5653 
         3083.9            6224 
         3084.2            6875 
         3084.5            7511 
         3084.8            8033 
         3085.1            8372 
         3085.4            8500 
         3085.7            8421 
           3086            8190 
         3086.3            7943 
         3086.6            7879 
         3086.9            8206 
         3087.2            9052 
         3087.5           10390 
         3087.8           11970 
         3088.1           13400 
         3088.4           14210 
         3088.7           14050 
           3089           12880 
         3089.3           10990 
         3089.6            8834 
         3089.9            6879 
         3090.2            5375 
         3090.5            4347 
         3090.8            3674 
         3091.1            3209 
         3091.4            2852 
         3091.7            2568 
           3092            2376 
         3092.3            2321 
         3092.6            2447 
         3092.9            2765 
         3093.2            3236 
         3093.5            3773 
         3093.8            4272 
         3094.1            4648 
         3094.4            4857 
         3094.7            4897 
           3095            4787 
         3095.3            4568 
         3095.6            4307 
         3095.9            4113 
         3096.2            4136 
         3096.5            4516 
         3096.8            5312 
         3097.1            6422 
         3097.4            7576 
         3097.7            8420 
           3098            8657 
         3098.3            8189 
         3098.6            7149 
         3098.9            5835 
         3099.2            4570 
         3099.5            3590 
         3099.8            2987 
         3100.1            2723 
         3100.4            2691 
         3100.7            2777 
           3101            2923 
         3101.3            3545 
         3101.6            4221 
         3101.9            5233 
         3102.2            6554 
         3102.5            8075 
         3102.8            9659 
         3103.1           11190 
         3103.4           12580 
         3103.7           13710 
           3104           14400 
         3104.3           14450 
         3104.6           13710 
         3104.9           12220 
         3105.2           10280 
         3105.5            8276 
         3105.8            6622 
         3106.1            5545 
         3106.4            5105 
         3106.7            5217 
           3107            5715 
         3107.3            6392 
         3107.6            7045 
         3107.9            7515 
         3108.2            7730 
         3108.5            7747 
         3108.8            7743 
         3109.1            7983 
         3109.4            8737 
         3109.7           10200 
           3110           12370 
         3110.3           15050 
         3110.6           17810 
         3110.9           20100 
         3111.2           21520 
         3111.5           21830 
         3111.8           21090 
         3112.1           19580 
         3112.4           17660 
         3112.7           15730 
           3113           14240 
         3113.3           13590 
         3113.6           14130 
         3113.9           15960 
         3114.2           18870 
         3114.5           22290 
         3114.8           25430 
         3115.1           27490 
         3115.4           27900 
         3115.7           26480 
           3116           23500 
         3116.3           19660 
         3116.6           15780 
         3116.9           12640 
         3117.2           10670 
         3117.5            9900 
         3117.8           10060 
         3118.1           10690 
         3118.4           11380 
         3118.7           11890 
           3119           12220 
         3119.3           12550 
         3119.6           13090 
         3119.9           13940 
         3120.2           14890 
         3120.5           15500 
         3120.8           15320 
         3121.1           14170 
         3121.4           12280 
         3121.7           10220 
           3122            8608 
         3122.3            7949 
         3122.6            8411 
         3122.9            9832 
         3123.2           11790 
         3123.5           13740 
         3123.8           15180 
         3124.1           15830 
         3124.4           15710 
         3124.7           15100 
           3125           14440 
         3125.3           14090 
         3125.6           14250 
         3125.9           14920 
         3126.2           15920 
         3126.5           16870 
         3126.8           17320 
         3127.1           16880 
         3127.4           15450 
         3127.7           13260 
           3128           10850 
         3128.3            8720 
         3128.6            7212 
         3128.9            6409 
         3129.2            6188 
         3129.5            6339 
         3129.8            6684 
         3130.1            7129 
         3130.4            7663 
         3130.7            8290 
           3131            8957 
         3131.3            9519 
         3131.6            9786 
         3131.9            9617 
         3132.2            9016 
         3132.5            8146 
         3132.8            7284 
         3133.1            6738 
         3133.4            6781 
         3133.7            7588 
           3134            9149 
         3134.3           11200 
         3134.6           13220 
         3134.9           14650 
         3135.2           15090 
         3135.5           14560 
         3135.8           13510 
         3136.1           12580 
         3136.4           12350 
         3136.7           13160 
           3137           15020 
         3137.3           17630 
         3137.6           20450 
         3137.9           22900 
         3138.2           24510 
         3138.5           25140 
         3138.8           24900 
         3139.1           24100 
         3139.4           23090 
         3139.7           22140 
           3140           21480 
         3140.3           21150 
         3140.6           21050 
         3140.9           21000 
         3141.2           20880 
         3141.5           20670 
         3141.8           20390 
         3142.1           19970 
         3142.4           19220 
         3142.7           17930 
           3143           16050 
         3143.3           13860 
         3143.6           11760 
         3143.9           10100 
         3144.2            9076 
         3144.5            8674 
         3144.8            8791 
         3145.1            9265 
         3145.4            9870 
         3145.7           10340 
           3146           10490 
         3146.3           10290 
         3146.6            9975 
         3146.9            9994 
         3147.2           10880 
         3147.5           13060 
         3147.8           16670 
         3148.1           21370 
         3148.4           26340 
         3148.7           30440 
           3149           32740 
         3149.3           32860 
         3149.6           31180 
         3149.9           28520 
         3150.2           25670 
         3150.5           23110 
         3150.8           20850 
         3151.1           18740 
         3151.4           16650 
         3151.7           14630 
           3152           12870 
         3152.3           11570 
         3152.6           10810 
         3152.9           10540 
         3153.2           10660 
         3153.5           11170 
         3153.8           12160 
         3154.1           13720 
         3154.4           15720 
         3154.7           17730 
           3155           19120 
         3155.3           19370 
         3155.6           18390 
         3155.9           16510 
         3156.2           14390 
         3156.5           12590 
         3156.8           11510 
         3157.1           11210 
         3157.4           11530 
         3157.7           12210 
           3158           13000 
         3158.3           13750 
         3158.6           14330 
         3158.9           14660 
         3159.2           14610 
         3159.5           14100 
         3159.8           13180 
         3160.1           12060 
         3160.4           11130 
         3160.7           10810 
           3161           11430 
         3161.3           13230 
         3161.6           16230 
         3161.9           20320 
         3162.2           24990 
         3162.5           29470 
         3162.8           32740 
         3163.1           33980 
         3163.4           32920 
         3163.7           30020 
           3164           26290 
         3164.3           22760 
         3164.6           20180 
         3164.9           18810 
         3165.2           18700 
         3165.5           19820 
         3165.8           22180 
         3166.1           25800 
         3166.4           30380 
         3166.7           35320 
           3167           39640 
         3167.3           42280 
         3167.6           42610 
         3167.9           40630 
         3168.2           37160 
         3168.5           33440 
         3168.8           30670 
         3169.1           29520 
         3169.4           30030 
         3169.7           31750 
           3170           34090 
         3170.3           36650 
         3170.6           39290 
         3170.9           42040 
         3171.2           44920 
         3171.5           47650 
         3171.8           49660 
         3172.1           50280 
         3172.4           49210 
         3172.7           46920 
           3173           44660 
         3173.3           43930 
         3173.6           45720 
         3173.9           50050 
         3174.2           56160 
         3174.5           63060 
         3174.8           69990 
         3175.1           76460 
         3175.4           81870 
         3175.7           85370 
           3176           85900 
         3176.3           82830 
         3176.6           76400 
         3176.9           67920 
         3177.2           59420 
         3177.5           52840 
         3177.8           49200 
         3178.1           48080 
