# Granada HRES Library
# atmosphere = Phoenix  (atmosphere model used)
# feh = -5  (value for [Fe/H] for the model.)
# logg = 0.5 log(cm/s2) (value for Log(G) for the model.)
# teff = 4000 K (value for the effective temperature for the model. Temperatures are given in K)
#
# column 1: WAVELENGTH (ANGSTROM), Wavelength in Angstrom
# column 2: FLUX (ERG/CM2/S/A), Flux in erg/cm2/s/A
         3000.2           239.7 
         3000.5           209.3 
         3000.8           189.7 
         3001.1           179.9 
         3001.4           175.9 
         3001.7           173.7 
           3002           171.5 
         3002.3           170.9 
         3002.6           178.2 
         3002.9           201.2 
         3003.2           246.4 
         3003.5           316.4 
         3003.8           408.8 
         3004.1           515.8 
         3004.4           626.5 
         3004.7           728.5 
           3005           810.5 
         3005.3             863 
         3005.6           879.2 
         3005.9           856.1 
         3006.2           796.5 
         3006.5           709.6 
         3006.8           609.5 
         3007.1           512.1 
         3007.4             433 
         3007.7           383.5 
           3008           369.1 
         3008.3           390.2 
         3008.6           442.6 
         3008.9           520.9 
         3009.2           618.4 
         3009.5           725.6 
         3009.8           828.1 
         3010.1           907.2 
         3010.4           945.6 
         3010.7           937.3 
           3011           892.5 
         3011.3           835.4 
         3011.6           793.2 
         3011.9           783.9 
         3012.2           807.6 
         3012.5           848.6 
         3012.8             884 
         3013.1           895.9 
         3013.4           878.7 
         3013.7           839.4 
           3014           792.9 
         3014.3           754.5 
         3014.6           734.1 
         3014.9           733.4 
         3015.2           746.4 
         3015.5           763.5 
         3015.8             776 
         3016.1           778.1 
         3016.4           766.8 
         3016.7           739.8 
           3017           698.1 
         3017.3           645.1 
         3017.6             587 
         3017.9           529.4 
         3018.2           474.1 
         3018.5             420 
         3018.8           365.2 
         3019.1           309.4 
         3019.4           254.3 
         3019.7           203.7 
           3020           161.5 
         3020.3           131.9 
         3020.6           118.8 
         3020.9           124.4 
         3021.2           149.7 
         3021.5           192.6 
         3021.8           247.8 
         3022.1           307.8 
         3022.4           362.8 
         3022.7           403.7 
           3023           424.2 
         3023.3           422.9 
         3023.6           404.4 
         3023.9           377.5 
         3024.2           350.6 
         3024.5           328.7 
         3024.8           312.4 
         3025.1           300.9 
         3025.4           295.2 
         3025.7           299.5 
           3026           318.9 
         3026.3           355.1 
         3026.6           405.3 
         3026.9           462.2 
         3027.2           519.1 
         3027.5           573.5 
         3027.8           628.6 
         3028.1             691 
         3028.4           766.3 
         3028.7           853.2 
           3029           940.8 
         3029.3            1012 
         3029.6            1047 
         3029.9            1040 
         3030.2           997.5 
         3030.5           946.8 
         3030.8           921.9 
         3031.1           953.9 
         3031.4            1055 
         3031.7            1209 
           3032            1377 
         3032.3            1505 
         3032.6            1555 
         3032.9            1514 
         3033.2            1399 
         3033.5            1250 
         3033.8            1104 
         3034.1           994.7 
         3034.4           933.8 
         3034.7           913.5 
           3035           912.2 
         3035.3           903.4 
         3035.6           867.7 
         3035.9           798.7 
         3036.2             703 
         3036.5           596.6 
         3036.8           498.5 
         3037.1           425.9 
         3037.4           390.6 
         3037.7           395.3 
           3038           435.7 
         3038.3           501.7 
         3038.6           582.9 
         3038.9           670.8 
         3039.2           759.4 
         3039.5           842.7 
         3039.8           913.7 
         3040.1           964.8 
         3040.4           990.4 
         3040.7           989.3 
           3041             967 
         3041.3           935.9 
         3041.6           913.1 
         3041.9           914.5 
         3042.2           946.2 
         3042.5            1001 
         3042.8            1063 
         3043.1            1116 
         3043.4            1152 
         3043.7            1175 
           3044            1191 
         3044.3            1207 
         3044.6            1222 
         3044.9            1230 
         3045.2            1223 
         3045.5            1190 
         3045.8            1121 
         3046.1            1014 
         3046.4           877.1 
         3046.7           725.6 
           3047             582 
         3047.3           468.6 
         3047.6           401.6 
         3047.9           388.4 
         3048.2           427.4 
         3048.5           508.3 
         3048.8           613.1 
         3049.1           717.3 
         3049.4             796 
         3049.7           831.4 
           3050           821.1 
         3050.3           779.3 
         3050.6           730.5 
         3050.9           698.7 
         3051.2           697.9 
         3051.5           728.1 
         3051.8           777.5 
         3052.1           826.9 
         3052.4             857 
         3052.7           854.7 
           3053           818.8 
         3053.3           759.8 
         3053.6           695.2 
         3053.9           642.1 
         3054.2           610.5 
         3054.5           601.5 
         3054.8           608.4 
         3055.1           620.3 
         3055.4           626.5 
         3055.7           619.4 
           3056           597.3 
         3056.3           563.2 
         3056.6           523.6 
         3056.9           484.9 
         3057.2           451.5 
         3057.5           424.4 
         3057.8           401.6 
         3058.1           380.6 
         3058.4             362 
         3058.7           352.7 
           3059           364.4 
         3059.3           410.2 
         3059.6           498.2 
         3059.9           627.4 
         3060.2           786.9 
         3060.5           957.9 
         3060.8            1120 
         3061.1            1257 
         3061.4            1357 
         3061.7            1414 
           3062            1421 
         3062.3            1371 
         3062.6            1264 
         3062.9            1112 
         3063.2           940.8 
         3063.5           785.6 
         3063.8           674.1 
         3064.1           617.5 
         3064.4           607.7 
         3064.7           623.7 
           3065           643.3 
         3065.3           652.6 
         3065.6           650.4 
         3065.9           645.6 
         3066.2           650.7 
         3066.5           676.5 
         3066.8           731.6 
         3067.1           824.6 
         3067.4           967.3 
         3067.7            1170 
           3068            1430 
         3068.3            1719 
         3068.6            1981 
         3068.9            2150 
         3069.2            2178 
         3069.5            2061 
         3069.8            1845 
         3070.1            1605 
         3070.4            1413 
         3070.7            1314 
           3071            1315 
         3071.3            1396 
         3071.6            1521 
         3071.9            1658 
         3072.2            1780 
         3072.5            1868 
         3072.8            1912 
         3073.1            1915 
         3073.4            1886 
         3073.7            1838 
           3074            1782 
         3074.3            1728 
         3074.6            1688 
         3074.9            1687 
         3075.2            1760 
         3075.5            1935 
         3075.8            2207 
         3076.1            2524 
         3076.4            2801 
         3076.7            2953 
           3077            2934 
         3077.3            2758 
         3077.6            2487 
         3077.9            2196 
         3078.2            1947 
         3078.5            1769 
         3078.8            1659 
         3079.1            1594 
         3079.4            1543 
         3079.7            1478 
           3080            1386 
         3080.3            1266 
         3080.6            1133 
         3080.9            1010 
         3081.2           924.4 
         3081.5           897.7 
         3081.8           933.7 
         3082.1            1017 
         3082.4            1116 
         3082.7            1196 
           3083            1238 
         3083.3            1248 
         3083.6            1257 
         3083.9            1299 
         3084.2            1401 
         3084.5            1564 
         3084.8            1764 
         3085.1            1965 
         3085.4            2128 
         3085.7            2233 
           3086            2288 
         3086.3            2324 
         3086.6            2380 
         3086.9            2481 
         3087.2            2630 
         3087.5            2812 
         3087.8            2989 
         3088.1            3109 
         3088.4            3119 
         3088.7            2989 
           3089            2735 
         3089.3            2422 
         3089.6            2130 
         3089.9            1911 
         3090.2            1766 
         3090.5            1652 
         3090.8            1520 
         3091.1            1344 
         3091.4            1136 
         3091.7             934 
           3092           776.3 
         3092.3           690.3 
         3092.6           685.2 
         3092.9           751.6 
         3093.2           864.5 
         3093.5             990 
         3093.8            1096 
         3094.1            1162 
         3094.4            1184 
         3094.7            1174 
           3095            1147 
         3095.3            1121 
         3095.6            1112 
         3095.9            1141 
         3096.2            1240 
         3096.5            1441 
         3096.8            1762 
         3097.1            2179 
         3097.4            2614 
         3097.7            2953 
           3098            3085 
         3098.3            2955 
         3098.6            2594 
         3098.9            2099 
         3099.2            1589 
         3099.5            1162 
         3099.8           864.1 
         3100.1           691.9 
         3100.4           614.8 
         3100.7           599.1 
           3101           628.6 
         3101.3           881.9 
         3101.6            1169 
         3101.9            1583 
         3102.2            2093 
         3102.5            2627 
         3102.8            3104 
         3103.1            3469 
         3103.4            3709 
         3103.7            3846 
           3104            3894 
         3104.3            3836 
         3104.6            3635 
         3104.9            3274 
         3105.2            2785 
         3105.5            2248 
         3105.8            1763 
         3106.1            1405 
         3106.4            1214 
         3106.7            1194 
           3107            1325 
         3107.3            1579 
         3107.6            1921 
         3107.9            2305 
         3108.2            2666 
         3108.5            2934 
         3108.8            3057 
         3109.1            3035 
         3109.4            2934 
         3109.7            2864 
           3110            2933 
         3110.3            3185 
         3110.6            3569 
         3110.9            3956 
         3111.2            4190 
         3111.5            4162 
         3111.8            3858 
         3112.1            3363 
         3112.4            2809 
         3112.7            2335 
           3113            2036 
         3113.3            1964 
         3113.6            2122 
         3113.9            2491 
         3114.2            3022 
         3114.5            3649 
         3114.8            4285 
         3115.1            4822 
         3115.4            5147 
         3115.7            5170 
           3116            4865 
         3116.3            4292 
         3116.6            3589 
         3116.9            2917 
         3117.2            2410 
         3117.5            2121 
         3117.8            2034 
         3118.1            2076 
         3118.4            2167 
         3118.7            2242 
           3119            2277 
         3119.3            2284 
         3119.6            2293 
         3119.9            2329 
         3120.2            2384 
         3120.5            2422 
         3120.8            2400 
         3121.1            2303 
         3121.4            2174 
         3121.7            2099 
           3122            2179 
         3122.3            2484 
         3122.6            3010 
         3122.9            3678 
         3123.2            4339 
         3123.5            4844 
         3123.8            5095 
         3124.1            5089 
         3124.4            4908 
         3124.7            4673 
           3125            4471 
         3125.3            4329 
         3125.6            4220 
         3125.9            4102 
         3126.2            3961 
         3126.5            3805 
         3126.8            3639 
         3127.1            3460 
         3127.4            3250 
         3127.7            3000 
           3128            2719 
         3128.3            2439 
         3128.6            2197 
         3128.9            2021 
         3129.2            1917 
         3129.5            1871 
         3129.8            1862 
         3130.1            1886 
         3130.4            1957 
         3130.7            2096 
           3131            2300 
         3131.3            2530 
         3131.6            2715 
         3131.9            2782 
         3132.2            2701 
         3132.5            2489 
         3132.8            2221 
         3133.1            1992 
         3133.4            1899 
         3133.7            2002 
           3134            2305 
         3134.3            2733 
         3134.6            3156 
         3134.9            3431 
         3135.2            3473 
         3135.5            3294 
         3135.8            2994 
         3136.1            2716 
         3136.4            2582 
         3136.7            2665 
           3137            2982 
         3137.3            3499 
         3137.6            4142 
         3137.9            4809 
         3138.2            5391 
         3138.5            5794 
         3138.8            5968 
         3139.1            5926 
         3139.4            5744 
         3139.7            5539 
           3140            5419 
         3140.3            5425 
         3140.6            5512 
         3140.9            5592 
         3141.2            5595 
         3141.5            5513 
         3141.8            5379 
         3142.1            5208 
         3142.4            4979 
         3142.7            4651 
           3143            4218 
         3143.3            3731 
         3143.6            3273 
         3143.9            2906 
         3144.2            2647 
         3144.5            2482 
         3144.8            2388 
         3145.1            2357 
         3145.4            2385 
         3145.7            2471 
           3146            2603 
         3146.3            2774 
         3146.6            2981 
         3146.9            3226 
         3147.2            3537 
         3147.5            3960 
         3147.8            4562 
         3148.1            5387 
         3148.4            6414 
         3148.7            7539 
           3149            8611 
         3149.3            9490 
         3149.6           10080 
         3149.9           10310 
         3150.2           10140 
         3150.5            9557 
         3150.8            8605 
         3151.1            7408 
         3151.4            6136 
         3151.7            4945 
           3152            3942 
         3152.3            3166 
         3152.6            2606 
         3152.9            2234 
         3153.2            2024 
         3153.5            1959 
         3153.8            2035 
         3154.1            2239 
         3154.4            2536 
         3154.7            2853 
           3155            3115 
         3155.3            3265 
         3155.6            3300 
         3155.9            3251 
         3156.2            3164 
         3156.5            3082 
         3156.8            3030 
         3157.1            3026 
         3157.4            3078 
         3157.7            3193 
           3158            3375 
         3158.3            3620 
         3158.6            3898 
         3158.9            4153 
         3159.2            4300 
         3159.5            4266 
         3159.8            4029 
         3160.1            3645 
         3160.4            3221 
         3160.7            2881 
           3161            2724 
         3161.3            2809 
         3161.6            3164 
         3161.9            3783 
         3162.2            4607 
         3162.5            5509 
         3162.8            6299 
         3163.1            6797 
         3163.4            6898 
         3163.7            6631 
           3164            6118 
         3164.3            5515 
         3164.6            4945 
         3164.9            4489 
         3165.2            4196 
         3165.5            4111 
         3165.8            4268 
         3166.1            4677 
         3166.4            5307 
         3166.7            6066 
           3167            6811 
         3167.3            7374 
         3167.6            7620 
         3167.9            7511 
         3168.2            7134 
         3168.5            6669 
         3168.8            6300 
         3169.1            6141 
         3169.4            6214 
         3169.7            6468 
           3170            6838 
         3170.3            7287 
         3170.6            7821 
         3170.9            8467 
         3171.2            9239 
         3171.5           10070 
         3171.8           10800 
         3172.1           11260 
         3172.4           11340 
         3172.7           11170 
           3173           11030 
         3173.3           11230 
         3173.6           11900 
         3173.9           12960 
         3174.2           14170 
         3174.5           15310 
         3174.8           16330 
         3175.1           17280 
         3175.4           18160 
         3175.7           18800 
           3176           18970 
         3176.3           18470 
         3176.6           17320 
         3176.9           15720 
         3177.2           14040 
         3177.5           12620 
         3177.8           11620 
         3178.1           10970 
