# Granada HRES Library
# atmosphere = Phoenix  (atmosphere model used)
# feh = 3  (value for [Fe/H] for the model.)
# logg = 3.5 log(cm/s2) (value for Log(G) for the model.)
# teff = 4000 K (value for the effective temperature for the model. Temperatures are given in K)
#
# column 1: WAVELENGTH (ANGSTROM), Wavelength in Angstrom
# column 2: FLUX (ERG/CM2/S/A), Flux in erg/cm2/s/A
         3000.2            2199 
         3000.5            2041 
         3000.8            1935 
         3001.1            1872 
         3001.4            1828 
         3001.7            1778 
           3002            1709 
         3002.3            1635 
         3002.6            1592 
         3002.9            1625 
         3003.2            1764 
         3003.5            2013 
         3003.8            2351 
         3004.1            2737 
         3004.4            3124 
         3004.7            3466 
           3005            3725 
         3005.3            3879 
         3005.6            3917 
         3005.9            3841 
         3006.2            3673 
         3006.5            3445 
         3006.8            3199 
         3007.1            2981 
         3007.4            2827 
         3007.7            2759 
           3008            2785 
         3008.3            2893 
         3008.6            3064 
         3008.9            3280 
         3009.2            3530 
         3009.5            3806 
         3009.8            4078 
         3010.1            4300 
         3010.4            4410 
         3010.7            4374 
           3011            4205 
         3011.3            3972 
         3011.6            3761 
         3011.9            3645 
         3012.2            3645 
         3012.5            3733 
         3012.8            3856 
         3013.1            3962 
         3013.4            4020 
         3013.7            4023 
           3014            3983 
         3014.3            3918 
         3014.6            3855 
         3014.9            3812 
         3015.2            3800 
         3015.5            3819 
         3015.8            3864 
         3016.1            3925 
         3016.4            3981 
         3016.7            4012 
           3017            3995 
         3017.3            3926 
         3017.6            3814 
         3017.9            3674 
         3018.2            3510 
         3018.5            3320 
         3018.8            3097 
         3019.1            2836 
         3019.4            2541 
         3019.7            2231 
           3020            1939 
         3020.3            1708 
         3020.6            1583 
         3020.9            1600 
         3021.2            1766 
         3021.5            2055 
         3021.8            2418 
         3022.1            2788 
         3022.4            3096 
         3022.7            3295 
           3023            3354 
         3023.3            3280 
         3023.6            3110 
         3023.9            2905 
         3024.2            2718 
         3024.5            2580 
         3024.8            2489 
         3025.1            2428 
         3025.4            2386 
         3025.7            2374 
           3026            2412 
         3026.3            2513 
         3026.6            2667 
         3026.9            2843 
         3027.2            3007 
         3027.5            3138 
         3027.8            3240 
         3028.1            3332 
         3028.4            3439 
         3028.7            3577 
           3029            3740 
         3029.3            3906 
         3029.6            4041 
         3029.9            4121 
         3030.2            4141 
         3030.5            4129 
         3030.8            4138 
         3031.1            4229 
         3031.4            4437 
         3031.7            4744 
           3032            5069 
         3032.3            5300 
         3032.6            5346 
         3032.9            5178 
         3033.2            4843 
         3033.5            4442 
         3033.8            4085 
         3034.1            3857 
         3034.4            3789 
         3034.7            3858 
           3035            3997 
         3035.3            4123 
         3035.6            4166 
         3035.9            4093 
         3036.2            3910 
         3036.5            3659 
         3036.8            3410 
         3037.1            3231 
         3037.4            3178 
         3037.7            3266 
           3038            3463 
         3038.3            3706 
         3038.6            3936 
         3038.9            4119 
         3039.2            4251 
         3039.5            4340 
         3039.8            4386 
         3040.1            4375 
         3040.4            4292 
         3040.7            4139 
           3041            3946 
         3041.3            3768 
         3041.6            3669 
         3041.9            3695 
         3042.2            3854 
         3042.5            4108 
         3042.8            4392 
         3043.1            4638 
         3043.4            4810 
         3043.7            4905 
           3044            4949 
         3044.3            4979 
         3044.6            5028 
         3044.9            5107 
         3045.2            5199 
         3045.5            5257 
         3045.8            5222 
         3046.1            5045 
         3046.4            4717 
         3046.7            4278 
           3047            3810 
         3047.3            3404 
         3047.6            3135 
         3047.9            3043 
         3048.2            3128 
         3048.5            3356 
         3048.8            3672 
         3049.1            4001 
         3049.4            4268 
         3049.7            4412 
           3050            4419 
         3050.3            4319 
         3050.6            4171 
         3050.9            4034 
         3051.2            3942 
         3051.5            3900 
         3051.8            3894 
         3052.1            3902 
         3052.4            3901 
         3052.7            3868 
           3053            3795 
         3053.3            3687 
         3053.6            3566 
         3053.9            3463 
         3054.2            3400 
         3054.5            3382 
         3054.8            3396 
         3055.1            3417 
         3055.4            3423 
         3055.7            3400 
           3056            3349 
         3056.3            3286 
         3056.6            3231 
         3056.9            3202 
         3057.2            3209 
         3057.5            3242 
         3057.8            3279 
         3058.1            3293 
         3058.4            3276 
         3058.7            3252 
           3059            3274 
         3059.3            3396 
         3059.6            3643 
         3059.9            3999 
         3060.2            4403 
         3060.5            4780 
         3060.8            5062 
         3061.1            5213 
         3061.4            5233 
         3061.7            5145 
           3062            4970 
         3062.3            4719 
         3062.6            4396 
         3062.9            4017 
         3063.2            3628 
         3063.5            3289 
         3063.8            3054 
         3064.1            2946 
         3064.4            2943 
         3064.7            2994 
           3065            3043 
         3065.3            3061 
         3065.6            3054 
         3065.9            3050 
         3066.2            3082 
         3066.5            3162 
         3066.8            3286 
         3067.1            3436 
         3067.4            3605 
         3067.7            3795 
           3068            4012 
         3068.3            4243 
         3068.6            4453 
         3068.9            4588 
         3069.2            4607 
         3069.5            4502 
         3069.8            4314 
         3070.1            4118 
         3070.4            3986 
         3070.7            3967 
           3071            4074 
         3071.3            4294 
         3071.6            4600 
         3071.9            4966 
         3072.2            5353 
         3072.5            5714 
         3072.8            5991 
         3073.1            6143 
         3073.4            6163 
         3073.7            6080 
           3074            5936 
         3074.3            5768 
         3074.6            5604 
         3074.9            5480 
         3075.2            5441 
         3075.5            5530 
         3075.8            5753 
         3076.1            6057 
         3076.4            6341 
         3076.7            6499 
           3077            6479 
         3077.3            6299 
         3077.6            6038 
         3077.9            5785 
         3078.2            5603 
         3078.5            5502 
         3078.8            5447 
         3079.1            5379 
         3079.4            5249 
         3079.7            5033 
           3080            4738 
         3080.3            4391 
         3080.6            4033 
         3080.9            3710 
         3081.2            3460 
         3081.5            3315 
         3081.8            3284 
         3082.1            3348 
         3082.4            3463 
         3082.7            3574 
           3083            3642 
         3083.3            3667 
         3083.6            3680 
         3083.9            3729 
         3084.2            3851 
         3084.5            4060 
         3084.8            4340 
         3085.1            4655 
         3085.4            4955 
         3085.7            5198 
           3086            5375 
         3086.3            5521 
         3086.6            5698 
         3086.9            5963 
         3087.2            6331 
         3087.5            6763 
         3087.8            7166 
         3088.1            7418 
         3088.4            7414 
         3088.7            7118 
           3089            6584 
         3089.3            5942 
         3089.6            5333 
         3089.9            4852 
         3090.2            4513 
         3090.5            4269 
         3090.8            4052 
         3091.1            3808 
         3091.4            3526 
         3091.7            3228 
           3092            2964 
         3092.3            2800 
         3092.6            2797 
         3092.9            2989 
         3093.2            3364 
         3093.5            3862 
         3093.8            4395 
         3094.1            4875 
         3094.4            5239 
         3094.7            5451 
           3095            5500 
         3095.3            5401 
         3095.6            5197 
         3095.9            4965 
         3096.2            4809 
         3096.5            4832 
         3096.8            5095 
         3097.1            5575 
         3097.4            6147 
         3097.7            6620 
           3098            6805 
         3098.3            6603 
         3098.6            6044 
         3098.9            5279 
         3099.2            4510 
         3099.5            3914 
         3099.8            3584 
         3100.1            3512 
         3100.4            3615 
         3100.7            3791 
           3101            3972 
         3101.3            4392 
         3101.6            4769 
         3101.9            5322 
         3102.2            6018 
         3102.5            6749 
         3102.8            7382 
         3103.1            7830 
         3103.4            8079 
         3103.7            8178 
           3104            8181 
         3104.3            8094 
         3104.6            7875 
         3104.9            7481 
         3105.2            6915 
         3105.5            6241 
         3105.8            5558 
         3106.1            4966 
         3106.4            4535 
         3106.7            4297 
           3107            4253 
         3107.3            4374 
         3107.6            4609 
         3107.9            4888 
         3108.2            5146 
         3108.5            5331 
         3108.8            5425 
         3109.1            5445 
         3109.4            5441 
         3109.7            5477 
           3110            5606 
         3110.3            5844 
         3110.6            6144 
         3110.9            6409 
         3111.2            6530 
         3111.5            6439 
         3111.8            6144 
         3112.1            5726 
         3112.4            5301 
         3112.7            4980 
           3113            4836 
         3113.3            4900 
         3113.6            5174 
         3113.9            5638 
         3114.2            6261 
         3114.5            7001 
         3114.8            7785 
         3115.1            8502 
         3115.4            9016 
         3115.7            9204 
           3116            9023 
         3116.3            8547 
         3116.6            7953 
         3116.9            7451 
         3117.2            7198 
         3117.5            7237 
         3117.8            7489 
         3118.1            7813 
         3118.4            8067 
         3118.7            8173 
           3119            8143 
         3119.3            8060 
         3119.6            8038 
         3119.9            8152 
         3120.2            8382 
         3120.5            8608 
         3120.8            8666 
         3121.1            8448 
         3121.4            7985 
         3121.7            7442 
           3122            7044 
         3122.3            6956 
         3122.6            7207 
         3122.9            7678 
         3123.2            8172 
         3123.5            8514 
         3123.8            8630 
         3124.1            8568 
         3124.4            8450 
         3124.7            8391 
           3125            8443 
         3125.3            8578 
         3125.6            8739 
         3125.9            8873 
         3126.2            8961 
         3126.5            8989 
         3126.8            8922 
         3127.1            8707 
         3127.4            8309 
         3127.7            7751 
           3128            7114 
         3128.3            6508 
         3128.6            6024 
         3128.9            5709 
         3129.2            5565 
         3129.5            5561 
         3129.8            5674 
         3130.1            5909 
         3130.4            6304 
         3130.7            6886 
           3131            7616 
         3131.3            8373 
         3131.6            8978 
         3131.9            9275 
         3132.2            9198 
         3132.5            8797 
         3132.8            8204 
         3133.1            7579 
         3133.4            7065 
         3133.7            6769 
           3134            6737 
         3134.3            6925 
         3134.6            7212 
         3134.9            7436 
         3135.2            7491 
         3135.5            7372 
         3135.8            7179 
         3136.1            7047 
         3136.4            7085 
         3136.7            7328 
           3137            7748 
         3137.3            8266 
         3137.6            8779 
         3137.9            9179 
         3138.2            9383 
         3138.5            9370 
         3138.8            9188 
         3139.1            8937 
         3139.4            8743 
         3139.7            8708 
           3140            8880 
         3140.3            9230 
         3140.6            9660 
         3140.9           10050 
         3141.2           10340 
         3141.5           10510 
         3141.8           10590 
         3142.1           10580 
         3142.4           10420 
         3142.7           10020 
           3143            9400 
         3143.3            8644 
         3143.6            7909 
         3143.9            7314 
         3144.2            6898 
         3144.5            6630 
         3144.8            6451 
         3145.1            6321 
         3145.4            6224 
         3145.7            6163 
           3146            6147 
         3146.3            6199 
         3146.6            6354 
         3146.9            6647 
         3147.2            7108 
         3147.5            7756 
         3147.8            8587 
         3148.1            9554 
         3148.4           10540 
         3148.7           11400 
           3149           11970 
         3149.3           12160 
         3149.6           11980 
         3149.9           11520 
         3150.2           10870 
         3150.5           10150 
         3150.8            9390 
         3151.1            8675 
         3151.4            8048 
         3151.7            7535 
           3152            7133 
         3152.3            6814 
         3152.6            6548 
         3152.9            6330 
         3153.2            6191 
         3153.5            6201 
         3153.8            6429 
         3154.1            6897 
         3154.4            7527 
         3154.7            8162 
           3155            8630 
         3155.3            8841 
         3155.6            8827 
         3155.9            8708 
         3156.2            8607 
         3156.5            8588 
         3156.8            8650 
         3157.1            8757 
         3157.4            8887 
         3157.7            9046 
           3158            9269 
         3158.3            9587 
         3158.6            9982 
         3158.9           10370 
         3159.2           10600 
         3159.5           10560 
         3159.8           10220 
         3160.1            9676 
         3160.4            9123 
         3160.7            8727 
           3161            8579 
         3161.3            8697 
         3161.6            9085 
         3161.9            9766 
         3162.2           10750 
         3162.5           11930 
         3162.8           13110 
         3163.1           14030 
         3163.4           14470 
         3163.7           14420 
           3164           14000 
         3164.3           13390 
         3164.6           12720 
         3164.9           12070 
         3165.2           11510 
         3165.5           11140 
         3165.8           11010 
         3166.1           11230 
         3166.4           11810 
         3166.7           12680 
           3167           13640 
         3167.3           14430 
         3167.6           14830 
         3167.9           14730 
         3168.2           14230 
         3168.5           13590 
         3168.8           13120 
         3169.1           12980 
         3169.4           13140 
         3169.7           13390 
           3170           13520 
         3170.3           13430 
         3170.6           13200 
         3170.9           13010 
         3171.2           13030 
         3171.5           13320 
         3171.8           13790 
         3172.1           14280 
         3172.4           14710 
         3172.7           15170 
           3173           15890 
         3173.3           17080 
         3173.6           18710 
         3173.9           20480 
         3174.2           21900 
         3174.5           22620 
         3174.8           22580 
         3175.1           21970 
         3175.4           21050 
         3175.7           19980 
           3176           18830 
         3176.3           17610 
         3176.6           16370 
         3176.9           15240 
         3177.2           14360 
         3177.5           13790 
         3177.8           13500 
         3178.1           13340 
