# Granada HRES Library
# atmosphere = Phoenix  (atmosphere model used)
# feh = -10  (value for [Fe/H] for the model.)
# logg = 0 log(cm/s2) (value for Log(G) for the model.)
# teff = 4000 K (value for the effective temperature for the model. Temperatures are given in K)
#
# column 1: WAVELENGTH (ANGSTROM), Wavelength in Angstrom
# column 2: FLUX (ERG/CM2/S/A), Flux in erg/cm2/s/A
         3000.2           178.1 
         3000.5           153.5 
         3000.8           137.6 
         3001.1           129.6 
         3001.4           126.9 
         3001.7           126.3 
           3002           126.5 
         3002.3           129.2 
         3002.6           139.6 
         3002.9           164.7 
         3003.2           210.4 
         3003.5             279 
         3003.8           368.7 
         3004.1           472.4 
         3004.4           579.2 
         3004.7           677.1 
           3005           754.8 
         3005.3           802.9 
         3005.6           815.7 
         3005.9             791 
         3006.2           731.4 
         3006.5           645.4 
         3006.8           545.6 
         3007.1           447.6 
         3007.4           366.3 
         3007.7           313.3 
           3008           294.3 
         3008.3             310 
         3008.6           356.2 
         3008.9           427.2 
         3009.2           515.7 
         3009.5           612.7 
         3009.8           705.3 
         3010.1           777.9 
         3010.4           817.1 
         3010.7           818.2 
           3011           789.5 
         3011.3           750.3 
         3011.6           722.5 
         3011.9           720.4 
         3012.2           744.4 
         3012.5             781 
         3012.8           811.1 
         3013.1           819.9 
         3013.4           803.1 
         3013.7           767.4 
           3014           725.6 
         3014.3           690.1 
         3014.6           668.1 
         3014.9           660.1 
         3015.2           660.7 
         3015.5           662.5 
         3015.8           659.9 
         3016.1           649.8 
         3016.4           630.6 
         3016.7           600.8 
           3017           560.6 
         3017.3           512.7 
         3017.6             462 
         3017.9           412.4 
         3018.2           365.2 
         3018.5           319.4 
         3018.8           272.9 
         3019.1           226.1 
         3019.4           180.7 
         3019.7             140 
           3020           106.8 
         3020.3            84.3 
         3020.6           74.75 
         3020.9           79.93 
         3021.2           100.5 
         3021.5           135.2 
         3021.8           180.4 
         3022.1           230.4 
         3022.4           277.2 
         3022.7           313.2 
           3023           332.9 
         3023.3           335.1 
         3023.6           323.6 
         3023.9           305.3 
         3024.2           286.7 
         3024.5           271.4 
         3024.8           259.4 
         3025.1           250.4 
         3025.4           246.6 
         3025.7           253.8 
           3026           277.8 
         3026.3           321.3 
         3026.6             381 
         3026.9           449.3 
         3027.2           518.6 
         3027.5           584.6 
         3027.8           648.5 
         3028.1           714.2 
         3028.4           784.6 
         3028.7           858.2 
           3029           926.5 
         3029.3           976.3 
         3029.6           994.5 
         3029.9           974.6 
         3030.2           922.7 
         3030.5           858.8 
         3030.8           813.2 
         3031.1           814.5 
         3031.4           877.4 
         3031.7           994.3 
           3032            1134 
         3032.3            1257 
         3032.6            1324 
         3032.9            1318 
         3033.2            1245 
         3033.5            1132 
         3033.8            1012 
         3034.1           916.3 
         3034.4           860.4 
         3034.7           840.8 
           3035           838.1 
         3035.3           827.9 
         3035.6             791 
         3035.9           721.4 
         3036.2           625.4 
         3036.5           518.9 
         3036.8           420.3 
         3037.1           346.3 
         3037.4           307.7 
         3037.7           308.2 
           3038           344.2 
         3038.3             408 
         3038.6           489.6 
         3038.9           579.8 
         3039.2           669.2 
         3039.5           748.7 
         3039.8           809.3 
         3040.1           844.1 
         3040.4           851.2 
         3040.7           833.6 
           3041           799.4 
         3041.3             761 
         3041.6             733 
         3041.9           727.9 
         3042.2           750.8 
         3042.5           796.7 
         3042.8           853.9 
         3043.1           910.4 
         3043.4             959 
         3043.7           998.7 
           3044            1030 
         3044.3            1053 
         3044.6            1064 
         3044.9            1059 
         3045.2            1034 
         3045.5           987.4 
         3045.8           915.2 
         3046.1           817.4 
         3046.4           698.8 
         3046.7           571.5 
           3047           452.8 
         3047.3           360.5 
         3047.6           308.1 
         3047.9           302.2 
         3048.2           341.6 
         3048.5           417.2 
         3048.8           512.8 
         3049.1           606.6 
         3049.4           676.3 
         3049.7             707 
           3050             698 
         3050.3           663.9 
         3050.6           628.1 
         3050.9           612.9 
         3051.2           630.5 
         3051.5           679.1 
         3051.8           745.3 
         3052.1           808.2 
         3052.4           847.4 
         3052.7           848.7 
           3053           810.8 
         3053.3             745 
         3053.6           671.2 
         3053.9           609.3 
         3054.2           572.6 
         3054.5           564.9 
         3054.8           580.6 
         3055.1           607.2 
         3055.4           630.3 
         3055.7           637.2 
           3056           621.4 
         3056.3           583.5 
         3056.6           530.4 
         3056.9           471.5 
         3057.2           415.4 
         3057.5           367.1 
         3057.8           327.5 
         3058.1           295.8 
         3058.4           272.6 
         3058.7           262.6 
           3059             275 
         3059.3           319.7 
         3059.6           402.9 
         3059.9           523.1 
         3060.2           670.2 
         3060.5           827.8 
         3060.8             978 
         3061.1            1107 
         3061.4            1204 
         3061.7            1266 
           3062            1286 
         3062.3            1255 
         3062.6            1170 
         3062.9            1037 
         3063.2           876.2 
         3063.5           720.6 
         3063.8           600.3 
         3064.1           533.5 
         3064.4           519.5 
         3064.7           542.2 
           3065           577.7 
         3065.3           605.5 
         3065.6           615.2 
         3065.9           609.4 
         3066.2           600.3 
         3066.5           604.2 
         3066.8           636.2 
         3067.1           708.4 
         3067.4           829.3 
         3067.7            1001 
           3068            1214 
         3068.3            1439 
         3068.6            1634 
         3068.9            1752 
         3069.2            1763 
         3069.5            1672 
         3069.8            1518 
         3070.1            1361 
         3070.4            1251 
         3070.7            1214 
           3071            1243 
         3071.3            1311 
         3071.6            1387 
         3071.9            1449 
         3072.2            1494 
         3072.5            1522 
         3072.8            1538 
         3073.1            1543 
         3073.4            1540 
         3073.7            1526 
           3074            1503 
         3074.3            1473 
         3074.6            1444 
         3074.9            1437 
         3075.2            1485 
         3075.5            1618 
         3075.8            1842 
         3076.1            2124 
         3076.4            2395 
         3076.7            2577 
           3077            2619 
         3077.3            2515 
         3077.6            2307 
         3077.9            2060 
         3078.2            1839 
         3078.5            1685 
         3078.8            1604 
         3079.1            1574 
         3079.4            1561 
         3079.7            1531 
           3080            1460 
         3080.3            1347 
         3080.6            1207 
         3080.9            1071 
         3081.2           973.4 
         3081.5             939 
         3081.8             973 
         3082.1            1058 
         3082.4            1161 
         3082.7            1247 
           3083            1298 
         3083.3            1320 
         3083.6            1338 
         3083.9            1378 
         3084.2            1450 
         3084.5            1547 
         3084.8            1650 
         3085.1            1739 
         3085.4            1799 
         3085.7            1824 
           3086            1822 
         3086.3            1811 
         3086.6            1815 
         3086.9            1853 
         3087.2            1934 
         3087.5            2047 
         3087.8            2168 
         3088.1            2256 
         3088.4            2273 
         3088.7            2194 
           3089            2027 
         3089.3            1814 
         3089.6            1609 
         3089.9            1450 
         3090.2            1339 
         3090.5            1251 
         3090.8            1153 
         3091.1            1029 
         3091.4           888.1 
         3091.7           752.4 
           3092             649 
         3092.3           597.8 
         3092.6           606.6 
         3092.9           669.3 
         3093.2           766.3 
         3093.5           869.6 
         3093.8           952.2 
         3094.1           996.8 
         3094.4            1001 
         3094.7           973.8 
           3095             931 
         3095.3           887.5 
         3095.6           857.9 
         3095.9           858.8 
         3096.2           911.9 
         3096.5            1040 
         3096.8            1252 
         3097.1            1533 
         3097.4            1829 
         3097.7            2061 
           3098            2154 
         3098.3            2073 
         3098.6            1833 
         3098.9            1501 
         3099.2            1155 
         3099.5           863.3 
         3099.8           657.4 
         3100.1             537 
         3100.4           481.4 
         3100.7           467.3 
           3101           483.1 
         3101.3           647.1 
         3101.6           841.1 
         3101.9            1124 
         3102.2            1477 
         3102.5            1855 
         3102.8            2205 
         3103.1            2491 
         3103.4            2702 
         3103.7            2837 
           3104            2894 
         3104.3            2855 
         3104.6            2697 
         3104.9            2419 
         3105.2            2060 
         3105.5            1686 
         3105.8            1374 
         3106.1            1174 
         3106.4            1111 
         3106.7            1177 
           3107            1350 
         3107.3            1594 
         3107.6            1873 
         3107.9            2146 
         3108.2            2367 
         3108.5            2504 
         3108.8            2542 
         3109.1            2506 
         3109.4            2457 
         3109.7            2470 
           3110            2606 
         3110.3            2875 
         3110.6            3227 
         3110.9            3562 
         3111.2            3771 
         3111.5            3781 
         3111.8            3579 
         3112.1            3217 
         3112.4            2787 
         3112.7            2386 
           3113            2099 
         3113.3            1978 
         3113.6            2046 
         3113.9            2292 
         3114.2            2673 
         3114.5            3119 
         3114.8            3545 
         3115.1            3861 
         3115.4            3992 
         3115.7            3897 
           3116            3583 
         3116.3            3114 
         3116.6            2590 
         3116.9            2119 
         3117.2            1785 
         3117.5            1619 
         3117.8            1602 
         3118.1            1678 
         3118.4            1781 
         3118.7            1862 
           3119            1904 
         3119.3            1923 
         3119.6            1948 
         3119.9            1997 
         3120.2            2054 
         3120.5            2081 
         3120.8            2033 
         3121.1            1895 
         3121.4            1704 
         3121.7            1531 
           3122            1456 
         3122.3            1536 
         3122.6            1784 
         3122.9            2161 
         3123.2            2587 
         3123.5            2965 
         3123.8            3216 
         3124.1            3300 
         3124.4            3237 
         3124.7            3087 
           3125            2915 
         3125.3            2767 
         3125.6            2663 
         3125.9            2601 
         3126.2            2570 
         3126.5            2548 
         3126.8            2511 
         3127.1            2431 
         3127.4            2294 
         3127.7            2113 
           3128            1921 
         3128.3            1761 
         3128.6            1671 
         3128.9            1659 
         3129.2            1706 
         3129.5            1774 
         3129.8            1832 
         3130.1            1866 
         3130.4            1889 
         3130.7            1927 
           3131            1991 
         3131.3            2063 
         3131.6            2105 
         3131.9            2074 
         3132.2            1956 
         3132.5            1767 
         3132.8            1554 
         3133.1            1379 
         3133.4            1305 
         3133.7            1368 
           3134            1573 
         3134.3            1877 
         3134.6            2199 
         3134.9            2444 
         3135.2            2549 
         3135.5            2506 
         3135.8            2368 
         3136.1            2217 
         3136.4            2131 
         3136.7            2165 
           3137            2335 
         3137.3            2630 
         3137.6            2996 
         3137.9            3362 
         3138.2            3653 
         3138.5            3814 
         3138.8            3834 
         3139.1            3747 
         3139.4            3616 
         3139.7            3518 
           3140            3504 
         3140.3            3575 
         3140.6            3680 
         3140.9            3749 
         3141.2            3736 
         3141.5            3642 
         3141.8            3505 
         3142.1            3354 
         3142.4            3191 
         3142.7            2993 
           3143            2750 
         3143.3            2476 
         3143.6            2214 
         3143.9            2005 
         3144.2            1876 
         3144.5            1831 
         3144.8            1865 
         3145.1            1962 
         3145.4            2094 
         3145.7            2225 
           3146            2325 
         3146.3            2383 
         3146.6            2417 
         3146.9            2466 
         3147.2            2573 
         3147.5            2779 
         3147.8            3109 
         3148.1            3561 
         3148.4            4094 
         3148.7            4630 
           3149            5090 
         3149.3            5419 
         3149.6            5607 
         3149.9            5662 
         3150.2            5589 
         3150.5            5379 
         3150.8            5026 
         3151.1            4549 
         3151.4            3994 
         3151.7            3430 
           3152            2923 
         3152.3            2516 
         3152.6            2224 
         3152.9            2035 
         3153.2            1923 
         3153.5            1869 
         3153.8            1869 
         3154.1            1929 
         3154.4            2048 
         3154.7            2202 
           3155            2351 
         3155.3            2457 
         3155.6            2501 
         3155.9            2494 
         3156.2            2464 
         3156.5            2444 
         3156.8            2462 
         3157.1            2530 
         3157.4            2646 
         3157.7            2794 
           3158            2953 
         3158.3            3103 
         3158.6            3221 
         3158.9            3282 
         3159.2            3262 
         3159.5            3137 
         3159.8            2917 
         3160.1            2640 
         3160.4            2366 
         3160.7            2163 
           3161            2077 
         3161.3            2136 
         3161.6            2337 
         3161.9            2660 
         3162.2            3050 
         3162.5            3434 
         3162.8            3726 
         3163.1            3858 
         3163.4            3809 
         3163.7            3620 
           3164            3369 
         3164.3            3133 
         3164.6            2972 
         3164.9            2915 
         3165.2            2976 
         3165.5            3160 
         3165.8            3466 
         3166.1            3879 
         3166.4            4353 
         3166.7            4812 
           3167            5161 
         3167.3            5311 
         3167.6            5224 
         3167.9            4931 
         3168.2            4537 
         3168.5            4177 
         3168.8            3963 
         3169.1            3944 
         3169.4            4105 
         3169.7            4400 
           3170            4775 
         3170.3            5195 
         3170.6            5634 
         3170.9            6071 
         3171.2            6477 
         3171.5            6800 
         3171.8            6981 
         3172.1            6967 
         3172.4            6767 
         3172.7            6467 
           3173            6218 
         3173.3            6165 
         3173.6            6376 
         3173.9            6809 
         3174.2            7360 
         3174.5            7929 
         3174.8            8472 
         3175.1            8993 
         3175.4            9481 
         3175.7            9875 
           3176           10060 
         3176.3            9952 
         3176.6            9517 
         3176.9            8842 
         3177.2            8096 
         3177.5            7457 
         3177.8            7031 
         3178.1            6799 
