# Granada HRES Library
# atmosphere = Phoenix  (atmosphere model used)
# feh = -5  (value for [Fe/H] for the model.)
# logg = 0 log(cm/s2) (value for Log(G) for the model.)
# teff = 4500 K (value for the effective temperature for the model. Temperatures are given in K)
#
# column 1: WAVELENGTH (ANGSTROM), Wavelength in Angstrom
# column 2: FLUX (ERG/CM2/S/A), Flux in erg/cm2/s/A
         3000.2            1041 
         3000.5           894.2 
         3000.8           791.2 
         3001.1           733.5 
         3001.4           712.2 
         3001.7           714.8 
           3002           739.9 
         3002.3           810.1 
         3002.6           975.2 
         3002.9            1301 
         3003.2            1849 
         3003.5            2651 
         3003.8            3688 
         3004.1            4886 
         3004.4            6113 
         3004.7            7221 
           3005            8059 
         3005.3            8511 
         3005.6            8506 
         3005.9            8044 
         3006.2            7187 
         3006.5            6066 
         3006.8            4848 
         3007.1            3707 
         3007.4            2785 
         3007.7            2175 
           3008            1911 
         3008.3            1985 
         3008.6            2360 
         3008.9            2993 
         3009.2            3834 
         3009.5            4802 
         3009.8            5772 
         3010.1            6583 
         3010.4            7087 
         3010.7            7223 
           3011            7065 
         3011.3            6808 
         3011.6            6694 
         3011.9            6900 
         3012.2            7448 
         3012.5            8191 
         3012.8            8887 
         3013.1            9316 
         3013.4            9379 
         3013.7            9112 
           3014            8646 
         3014.3            8128 
         3014.6            7643 
         3014.9            7217 
         3015.2            6821 
         3015.5            6423 
         3015.8            6011 
         3016.1            5584 
         3016.4            5142 
         3016.7            4667 
           3017            4150 
         3017.3            3610 
         3017.6            3083 
         3017.9            2605 
         3018.2            2189 
         3018.5            1822 
         3018.8            1488 
         3019.1            1178 
         3019.4           897.4 
         3019.7           659.9 
           3020           477.9 
         3020.3           361.6 
         3020.6             319 
         3020.9           357.3 
         3021.2           481.4 
         3021.5           689.2 
         3021.8             966 
         3022.1            1281 
         3022.4            1589 
         3022.7            1838 
           3023            1996 
         3023.3            2052 
         3023.6            2030 
         3023.9            1970 
         3024.2            1907 
         3024.5            1851 
         3024.8            1800 
         3025.1            1760 
         3025.4            1775 
         3025.7            1922 
           3026            2292 
         3026.3            2956 
         3026.6            3945 
         3026.9            5259 
         3027.2            6862 
         3027.5            8678 
         3027.8           10560 
         3028.1           12300 
         3028.4           13660 
         3028.7           14420 
           3029           14490 
         3029.3           13890 
         3029.6           12740 
         3029.9           11220 
         3030.2            9592 
         3030.5            8177 
         3030.8            7334 
         3031.1            7369 
         3031.4            8409 
         3031.7           10320 
           3032           12680 
         3032.3           14950 
         3032.6           16560 
         3032.9           17170 
         3033.2           16760 
         3033.5           15570 
         3033.8           14010 
         3034.1           12500 
         3034.4           11300 
         3034.7           10440 
           3035            9770 
         3035.3            9073 
         3035.6            8174 
         3035.9            7030 
         3036.2            5726 
         3036.5            4420 
         3036.8            3275 
         3037.1            2416 
         3037.4            1909 
         3037.7            1762 
           3038            1951 
         3038.3            2436 
         3038.6            3170 
         3038.9            4085 
         3039.2            5077 
         3039.5            6012 
         3039.8            6749 
         3040.1            7188 
         3040.4            7294 
         3040.7            7093 
           3041            6651 
         3041.3            6075 
         3041.6            5510 
         3041.9            5112 
         3042.2            5000 
         3042.5            5231 
         3042.8            5799 
         3043.1            6677 
         3043.4            7820 
         3043.7            9139 
           3044           10470 
         3044.3           11550 
         3044.6           12160 
         3044.9           12160 
         3045.2           11560 
         3045.5           10510 
         3045.8            9163 
         3046.1            7663 
         3046.4            6133 
         3046.7            4694 
           3047            3479 
         3047.3            2611 
         3047.6            2168 
         3047.9            2175 
         3048.2            2589 
         3048.5            3302 
         3048.8            4151 
         3049.1            4931 
         3049.4            5457 
         3049.7            5637 
           3050            5528 
         3050.3            5335 
         3050.6            5337 
         3050.9            5776 
         3051.2            6748 
         3051.5            8151 
         3051.8            9698 
         3052.1           11000 
         3052.4           11680 
         3052.7           11550 
           3053           10640 
         3053.3            9218 
         3053.6            7694 
         3053.9            6435 
         3054.2            5706 
         3054.5            5619 
         3054.8            6127 
         3055.1            7033 
         3055.4            8014 
         3055.7            8708 
           3056            8831 
         3056.3            8285 
         3056.6            7183 
         3056.9            5793 
         3057.2            4406 
         3057.5            3236 
         3057.8            2374 
         3058.1            1814 
         3058.4            1520 
         3058.7            1480 
           3059            1731 
         3059.3            2346 
         3059.6            3393 
         3059.9            4886 
         3060.2            6759 
         3060.5            8864 
         3060.8           11010 
         3061.1           13040 
         3061.4           14840 
         3061.7           16360 
           3062           17520 
         3062.3           18160 
         3062.6           18060 
         3062.9           17100 
         3063.2           15330 
         3063.5           13100 
         3063.8           10960 
         3064.1            9392 
         3064.4            8703 
         3064.7            8839 
           3065            9446 
         3065.3           10030 
         3065.6           10190 
         3065.9            9748 
         3066.2            8869 
         3066.5            7934 
         3066.8            7408 
         3067.1            7706 
         3067.4            9100 
         3067.7           11650 
           3068           15150 
         3068.3           19060 
         3068.6           22600 
         3068.9           24990 
         3069.2           25700 
         3069.5           24790 
         3069.8           22850 
         3070.1           20740 
         3070.4           19180 
         3070.7           18430 
           3071           18260 
         3071.3           18190 
         3071.6           17790 
         3071.9           16930 
         3072.2           15780 
         3072.5           14650 
         3072.8           13760 
         3073.1           13190 
         3073.4           12860 
         3073.7           12680 
           3074           12540 
         3074.3           12440 
         3074.6           12510 
         3074.9           13030 
         3075.2           14410 
         3075.5           16980 
         3075.8           20690 
         3076.1           24970 
         3076.4           28770 
         3076.7           31000 
           3077           30990 
         3077.3           28810 
         3077.6           25230 
         3077.9           21390 
         3078.2           18370 
         3078.5           16840 
         3078.8           16880 
         3079.1           18040 
         3079.4           19580 
         3079.7           20660 
           3080           20720 
         3080.3           19590 
         3080.6           17590 
         3080.9           15360 
         3081.2           13580 
         3081.5           12720 
         3081.8           12890 
         3082.1           13890 
         3082.4           15300 
         3082.7           16750 
           3083           18100 
         3083.3           19440 
         3083.6           20980 
         3083.9           22800 
         3084.2           24740 
         3084.5           26430 
         3084.8           27530 
         3085.1           27810 
         3085.4           27230 
         3085.7           25840 
           3086           23860 
         3086.3           21590 
         3086.6           19400 
         3086.9           17640 
         3087.2           16510 
         3087.5           16050 
         3087.8           16130 
         3088.1           16480 
         3088.4           16780 
         3088.7           16800 
           3089           16580 
         3089.3           16380 
         3089.6           16470 
         3089.9           16910 
         3090.2           17390 
         3090.5           17370 
         3090.8           16460 
         3091.1           14600 
         3091.4           12120 
         3091.7            9549 
           3092            7381 
         3092.3            5929 
         3092.6            5323 
         3092.9            5538 
         3093.2            6439 
         3093.5            7801 
         3093.8            9334 
         3094.1           10720 
         3094.4           11680 
         3094.7           12080 
           3095           11930 
         3095.3           11440 
         3095.6           10930 
         3095.9           10670 
         3096.2           10880 
         3096.5           11690 
         3096.8           13090 
         3097.1           14920 
         3097.4           16790 
         3097.7           18140 
           3098           18420 
         3098.3           17360 
         3098.6           15090 
         3098.9           12100 
         3099.2            9020 
         3099.5            6374 
         3099.8            4429 
         3100.1            3204 
         3100.4            2569 
         3100.7            2379 
           3101            2576 
         3101.3            4550 
         3101.6            6677 
         3101.9            9623 
         3102.2           13150 
         3102.5           16800 
         3102.8           20150 
         3103.1           22920 
         3103.4           25050 
         3103.7           26580 
           3104           27350 
         3104.3           27140 
         3104.6           25690 
         3104.9           23140 
         3105.2           20060 
         3105.5           17270 
         3105.8           15530 
         3106.1           15160 
         3106.4           16060 
         3106.7           17800 
           3107           19990 
         3107.3           22340 
         3107.6           24770 
         3107.9           27260 
         3108.2           29590 
         3108.5           31440 
         3108.8           32450 
         3109.1           32570 
         3109.4           32150 
         3109.7           31850 
           3110           32400 
         3110.3           34150 
         3110.6           36920 
         3110.9           40020 
         3111.2           42460 
         3111.5           43400 
         3111.8           42370 
         3112.1           39440 
         3112.4           35200 
         3112.7           30620 
           3113           26850 
         3113.3           24960 
         3113.6           25660 
         3113.9           29050 
         3114.2           34510 
         3114.5           40830 
         3114.8           46490 
         3115.1           50110 
         3115.4           50750 
         3115.7           48180 
           3116           42840 
         3116.3           35770 
         3116.6           28280 
         3116.9           21600 
         3117.2           16580 
         3117.5           13560 
         3117.8           12360 
         3118.1           12490 
         3118.4           13290 
         3118.7           14230 
           3119           15030 
         3119.3           15720 
         3119.6           16520 
         3119.9           17540 
         3120.2           18610 
         3120.5           19350 
         3120.8           19390 
         3121.1           18640 
         3121.4           17450 
         3121.7           16400 
           3122           16110 
         3122.3           17020 
         3122.6           19250 
         3122.9           22550 
         3123.2           26340 
         3123.5           29800 
         3123.8           32070 
         3124.1           32670 
         3124.4           31740 
         3124.7           29960 
           3125           28260 
         3125.3           27310 
         3125.6           27350 
         3125.9           28110 
         3126.2           29000 
         3126.5           29280 
         3126.8           28480 
         3127.1           26410 
         3127.4           23500 
         3127.7           20490 
           3128           18290 
         3128.3           17520 
         3128.6           18290 
         3128.9           20130 
         3129.2           22120 
         3129.5           23390 
         3129.8           23400 
         3130.1           22220 
         3130.4           20360 
         3130.7           18440 
           3131           16930 
         3131.3           15940 
         3131.6           15280 
         3131.9           14680 
         3132.2           13870 
         3132.5           12770 
         3132.8           11500 
         3133.1           10420 
         3133.4           10020 
         3133.7           10760 
           3134           12800 
         3134.3           15860 
         3134.6           19180 
         3134.9           21880 
         3135.2           23290 
         3135.5           23320 
         3135.8           22460 
         3136.1           21530 
         3136.4           21240 
         3136.7           22020 
           3137           23900 
         3137.3           26640 
         3137.6           29780 
         3137.9           32820 
         3138.2           35250 
         3138.5           36630 
         3138.8           36780 
         3139.1           35810 
         3139.4           34220 
         3139.7           32740 
           3140           32010 
         3140.3           32190 
         3140.6           32840 
         3140.9           33230 
         3141.2           32750 
         3141.5           31320 
         3141.8           29340 
         3142.1           27300 
         3142.4           25390 
         3142.7           23460 
           3143           21320 
         3143.3           18950 
         3143.6           16710 
         3143.9           15170 
         3144.2           14890 
         3144.5           16250 
         3144.8           19280 
         3145.1           23550 
         3145.4           28130 
         3145.7           31790 
           3146           33480 
         3146.3           32770 
         3146.6           30150 
         3146.9           26800 
         3147.2           24120 
         3147.5           23250 
         3147.8           24850 
         3148.1           28930 
         3148.4           34920 
         3148.7           41890 
           3149           48760 
         3149.3           54670 
         3149.6           59020 
         3149.9           61470 
         3150.2           61830 
         3150.5           60020 
         3150.8           56200 
         3151.1           50830 
         3151.4           44640 
         3151.7           38550 
           3152           33410 
         3152.3           29760 
         3152.6           27630 
         3152.9           26540 
         3153.2           25700 
         3153.5           24410 
         3153.8           22390 
         3154.1           19950 
         3154.4           17670 
         3154.7           16110 
           3155           15490 
         3155.3           15640 
         3155.6           16180 
         3155.9           16750 
         3156.2           17110 
         3156.5           17210 
         3156.8           17160 
         3157.1           17110 
         3157.4           17240 
         3157.7           17660 
           3158           18410 
         3158.3           19490 
         3158.6           20750 
         3158.9           22020 
         3159.2           22990 
         3159.5           23340 
         3159.8           22860 
         3160.1           21540 
         3160.4           19650 
         3160.7           17640 
           3161           16120 
         3161.3           15640 
         3161.6           16540 
         3161.9           18760 
         3162.2           21860 
         3162.5           25130 
         3162.8           27660 
         3163.1           28830 
         3163.4           28370 
         3163.7           26560 
           3164           24040 
         3164.3           21590 
         3164.6           19920 
         3164.9           19520 
         3165.2           20660 
         3165.5           23390 
         3165.8           27470 
         3166.1           32310 
         3166.4           37030 
         3166.7           40590 
           3167           42120 
         3167.3           41240 
         3167.6           38240 
         3167.9           33980 
         3168.2           29640 
         3168.5           26230 
         3168.8           24460 
         3169.1           24680 
         3169.4           27040 
         3169.7           31670 
           3170           38600 
         3170.3           47540 
         3170.6           57740 
         3170.9           67880 
         3171.2           76470 
         3171.5           82050 
         3171.8           83750 
         3172.1           81560 
         3172.4           76490 
         3172.7           70390 
           3173           65340 
         3173.3           62740 
         3173.6           62770 
         3173.9           64480 
         3174.2           66550 
         3174.5           68180 
         3174.8           69470 
         3175.1           71020 
         3175.4           73260 
         3175.7           75900 
           3176           77860 
         3176.3           77890 
         3176.6           75220 
         3176.9           70040 
         3177.2           63380 
         3177.5           56600 
         3177.8           50780 
         3178.1           46280 
