# Granada HRES Library
# atmosphere = Spectrum  (atmosphere model used)
# feh = -5  (value for [Fe/H] for the model.)
# logg = 3 log(cm/s2) (value for Log(G) for the model.)
# teff = 5750 K (value for the effective temperature for the model. Temperatures are given in K)
#
# column 1: WAVELENGTH (ANGSTROM), Wavelength in Angstrom
# column 2: FLUX (ERG/CM2/S/A), Flux in erg/cm2/s/A
         3000.2        2.358e+6 
         3000.5        2.363e+6 
         3000.8         2.37e+6 
         3001.1        2.376e+6 
         3001.4        2.376e+6 
         3001.7        2.375e+6 
           3002        2.376e+6 
         3002.3        2.391e+6 
         3002.6        2.435e+6 
         3002.9        2.519e+6 
         3003.2        2.652e+6 
         3003.5        2.832e+6 
         3003.8         3.05e+6 
         3004.1        3.288e+6 
         3004.4        3.523e+6 
         3004.7        3.732e+6 
           3005        3.896e+6 
         3005.3        3.999e+6 
         3005.6        4.033e+6 
         3005.9          4.0e+6 
         3006.2        3.908e+6 
         3006.5        3.773e+6 
         3006.8        3.615e+6 
         3007.1        3.458e+6 
         3007.4        3.321e+6 
         3007.7        3.222e+6 
           3008        3.174e+6 
         3008.3        3.185e+6 
         3008.6        3.258e+6 
         3008.9        3.385e+6 
         3009.2        3.557e+6 
         3009.5        3.752e+6 
         3009.8        3.947e+6 
         3010.1        4.116e+6 
         3010.4        4.239e+6 
         3010.7        4.306e+6 
           3011        4.314e+6 
         3011.3        4.276e+6 
         3011.6        4.209e+6 
         3011.9        4.131e+6 
         3012.2        4.056e+6 
         3012.5        3.989e+6 
         3012.8        3.934e+6 
         3013.1        3.886e+6 
         3013.4        3.843e+6 
         3013.7        3.804e+6 
           3014        3.769e+6 
         3014.3        3.737e+6 
         3014.6         3.71e+6 
         3014.9         3.69e+6 
         3015.2        3.675e+6 
         3015.5        3.668e+6 
         3015.8        3.665e+6 
         3016.1        3.663e+6 
         3016.4        3.654e+6 
         3016.7        3.634e+6 
           3017        3.596e+6 
         3017.3        3.533e+6 
         3017.6        3.445e+6 
         3017.9        3.327e+6 
         3018.2         3.18e+6 
         3018.5        3.003e+6 
         3018.8        2.801e+6 
         3019.1        2.581e+6 
         3019.4        2.356e+6 
         3019.7        2.146e+6 
           3020        1.977e+6 
         3020.3        1.875e+6 
         3020.6        1.866e+6 
         3020.9        1.968e+6 
         3021.2        2.178e+6 
         3021.5        2.479e+6 
         3021.8        2.835e+6 
         3022.1        3.202e+6 
         3022.4        3.536e+6 
         3022.7          3.8e+6 
           3023        3.975e+6 
         3023.3        4.055e+6 
         3023.6        4.045e+6 
         3023.9        3.963e+6 
         3024.2        3.827e+6 
         3024.5         3.66e+6 
         3024.8        3.485e+6 
         3025.1        3.326e+6 
         3025.4         3.21e+6 
         3025.7         3.16e+6 
           3026        3.192e+6 
         3026.3        3.308e+6 
         3026.6        3.495e+6 
         3026.9        3.724e+6 
         3027.2        3.961e+6 
         3027.5        4.173e+6 
         3027.8        4.333e+6 
         3028.1        4.424e+6 
         3028.4         4.44e+6 
         3028.7         4.39e+6 
           3029        4.288e+6 
         3029.3         4.15e+6 
         3029.6        3.999e+6 
         3029.9         3.85e+6 
         3030.2         3.72e+6 
         3030.5         3.62e+6 
         3030.8        3.558e+6 
         3031.1        3.538e+6 
         3031.4        3.561e+6 
         3031.7        3.621e+6 
           3032        3.705e+6 
         3032.3          3.8e+6 
         3032.6         3.89e+6 
         3032.9        3.969e+6 
         3033.2        4.037e+6 
         3033.5        4.095e+6 
         3033.8        4.152e+6 
         3034.1         4.21e+6 
         3034.4        4.266e+6 
         3034.7        4.311e+6 
           3035        4.327e+6 
         3035.3        4.294e+6 
         3035.6        4.199e+6 
         3035.9        4.035e+6 
         3036.2        3.812e+6 
         3036.5        3.553e+6 
         3036.8        3.294e+6 
         3037.1        3.071e+6 
         3037.4        2.917e+6 
         3037.7        2.852e+6 
           3038        2.879e+6 
         3038.3        2.986e+6 
         3038.6        3.147e+6 
         3038.9         3.33e+6 
         3039.2        3.503e+6 
         3039.5        3.639e+6 
         3039.8        3.722e+6 
         3040.1        3.743e+6 
         3040.4        3.709e+6 
         3040.7        3.633e+6 
           3041        3.535e+6 
         3041.3        3.436e+6 
         3041.6        3.359e+6 
         3041.9        3.319e+6 
         3042.2        3.323e+6 
         3042.5         3.37e+6 
         3042.8        3.448e+6 
         3043.1         3.54e+6 
         3043.4         3.63e+6 
         3043.7        3.706e+6 
           3044        3.761e+6 
         3044.3        3.798e+6 
         3044.6        3.819e+6 
         3044.9        3.824e+6 
         3045.2         3.81e+6 
         3045.5        3.772e+6 
         3045.8        3.704e+6 
         3046.1        3.602e+6 
         3046.4        3.475e+6 
         3046.7         3.34e+6 
           3047        3.221e+6 
         3047.3        3.146e+6 
         3047.6        3.132e+6 
         3047.9        3.184e+6 
         3048.2        3.293e+6 
         3048.5         3.44e+6 
         3048.8        3.598e+6 
         3049.1        3.746e+6 
         3049.4        3.869e+6 
         3049.7        3.967e+6 
           3050        4.051e+6 
         3050.3        4.135e+6 
         3050.6        4.235e+6 
         3050.9        4.357e+6 
         3051.2        4.494e+6 
         3051.5        4.625e+6 
         3051.8        4.724e+6 
         3052.1        4.767e+6 
         3052.4         4.74e+6 
         3052.7        4.646e+6 
           3053        4.501e+6 
         3053.3        4.334e+6 
         3053.6        4.177e+6 
         3053.9        4.058e+6 
         3054.2        3.994e+6 
         3054.5        3.986e+6 
         3054.8        4.022e+6 
         3055.1        4.073e+6 
         3055.4        4.109e+6 
         3055.7        4.103e+6 
           3056        4.037e+6 
         3056.3        3.908e+6 
         3056.6        3.729e+6 
         3056.9        3.524e+6 
         3057.2        3.319e+6 
         3057.5         3.14e+6 
         3057.8        3.002e+6 
         3058.1        2.915e+6 
         3058.4        2.879e+6 
         3058.7        2.894e+6 
           3059        2.962e+6 
         3059.3        3.083e+6 
         3059.6        3.251e+6 
         3059.9        3.457e+6 
         3060.2        3.678e+6 
         3060.5        3.889e+6 
         3060.8        4.062e+6 
         3061.1        4.179e+6 
         3061.4        4.228e+6 
         3061.7         4.21e+6 
           3062        4.133e+6 
         3062.3         4.01e+6 
         3062.6        3.858e+6 
         3062.9        3.696e+6 
         3063.2        3.542e+6 
         3063.5         3.41e+6 
         3063.8        3.308e+6 
         3064.1        3.236e+6 
         3064.4        3.187e+6 
         3064.7        3.149e+6 
           3065        3.104e+6 
         3065.3        3.043e+6 
         3065.6        2.963e+6 
         3065.9         2.87e+6 
         3066.2        2.776e+6 
         3066.5        2.701e+6 
         3066.8        2.659e+6 
         3067.1        2.667e+6 
         3067.4        2.727e+6 
         3067.7        2.841e+6 
           3068        2.997e+6 
         3068.3         3.18e+6 
         3068.6        3.369e+6 
         3068.9        3.543e+6 
         3069.2        3.686e+6 
         3069.5        3.788e+6 
         3069.8        3.847e+6 
         3070.1        3.868e+6 
         3070.4        3.862e+6 
         3070.7        3.836e+6 
           3071          3.8e+6 
         3071.3        3.762e+6 
         3071.6        3.726e+6 
         3071.9        3.703e+6 
         3072.2        3.702e+6 
         3072.5        3.727e+6 
         3072.8         3.78e+6 
         3073.1        3.847e+6 
         3073.4        3.911e+6 
         3073.7        3.952e+6 
           3074        3.956e+6 
         3074.3        3.919e+6 
         3074.6        3.851e+6 
         3074.9        3.776e+6 
         3075.2         3.72e+6 
         3075.5        3.703e+6 
         3075.8        3.733e+6 
         3076.1        3.801e+6 
         3076.4        3.884e+6 
         3076.7        3.955e+6 
           3077        3.994e+6 
         3077.3         3.99e+6 
         3077.6        3.952e+6 
         3077.9        3.896e+6 
         3078.2        3.846e+6 
         3078.5        3.819e+6 
         3078.8        3.824e+6 
         3079.1        3.856e+6 
         3079.4        3.901e+6 
         3079.7        3.937e+6 
           3080        3.949e+6 
         3080.3        3.925e+6 
         3080.6        3.865e+6 
         3080.9        3.778e+6 
         3081.2        3.676e+6 
         3081.5        3.576e+6 
         3081.8        3.495e+6 
         3082.1        3.447e+6 
         3082.4        3.442e+6 
         3082.7        3.485e+6 
           3083        3.579e+6 
         3083.3        3.717e+6 
         3083.6        3.891e+6 
         3083.9        4.083e+6 
         3084.2        4.272e+6 
         3084.5        4.435e+6 
         3084.8        4.553e+6 
         3085.1        4.607e+6 
         3085.4        4.589e+6 
         3085.7        4.498e+6 
           3086        4.341e+6 
         3086.3        4.139e+6 
         3086.6        3.914e+6 
         3086.9        3.695e+6 
         3087.2        3.506e+6 
         3087.5        3.365e+6 
         3087.8        3.277e+6 
         3088.1        3.234e+6 
         3088.4        3.222e+6 
         3088.7         3.22e+6 
           3089        3.215e+6 
         3089.3        3.201e+6 
         3089.6        3.181e+6 
         3089.9        3.162e+6 
         3090.2        3.153e+6 
         3090.5        3.157e+6 
         3090.8         3.17e+6 
         3091.1        3.181e+6 
         3091.4        3.179e+6 
         3091.7        3.155e+6 
           3092        3.107e+6 
         3092.3        3.043e+6 
         3092.6         2.98e+6 
         3092.9         2.94e+6 
         3093.2        2.936e+6 
         3093.5        2.977e+6 
         3093.8        3.054e+6 
         3094.1        3.151e+6 
         3094.4        3.243e+6 
         3094.7        3.309e+6 
           3095        3.334e+6 
         3095.3        3.312e+6 
         3095.6         3.25e+6 
         3095.9        3.163e+6 
         3096.2        3.074e+6 
         3096.5        3.006e+6 
         3096.8        2.971e+6 
         3097.1        2.973e+6 
         3097.4        2.998e+6 
         3097.7        3.026e+6 
           3098        3.032e+6 
         3098.3        2.994e+6 
         3098.6        2.902e+6 
         3098.9        2.761e+6 
         3099.2        2.588e+6 
         3099.5        2.407e+6 
         3099.8        2.243e+6 
         3100.1        2.118e+6 
         3100.4         2.05e+6 
         3100.7        2.045e+6 
           3101        2.108e+6 
         3101.3        2.234e+6 
         3101.6        2.417e+6 
         3101.9        2.642e+6 
         3102.2        2.891e+6 
         3102.5         3.14e+6 
         3102.8        3.367e+6 
         3103.1        3.549e+6 
         3103.4        3.669e+6 
         3103.7        3.721e+6 
           3104         3.71e+6 
         3104.3        3.651e+6 
         3104.6        3.565e+6 
         3104.9        3.481e+6 
         3105.2        3.422e+6 
         3105.5        3.409e+6 
         3105.8        3.451e+6 
         3106.1        3.546e+6 
         3106.4        3.681e+6 
         3106.7        3.838e+6 
           3107        3.996e+6 
         3107.3        4.138e+6 
         3107.6        4.247e+6 
         3107.9        4.316e+6 
         3108.2        4.342e+6 
         3108.5        4.329e+6 
         3108.8        4.286e+6 
         3109.1        4.225e+6 
         3109.4        4.161e+6 
         3109.7        4.107e+6 
           3110        4.075e+6 
         3110.3        4.073e+6 
         3110.6          4.1e+6 
         3110.9        4.151e+6 
         3111.2        4.216e+6 
         3111.5        4.283e+6 
         3111.8         4.34e+6 
         3112.1        4.374e+6 
         3112.4        4.378e+6 
         3112.7        4.348e+6 
           3113        4.285e+6 
         3113.3        4.199e+6 
         3113.6        4.105e+6 
         3113.9        4.021e+6 
         3114.2        3.966e+6 
         3114.5         3.95e+6 
         3114.8        3.973e+6 
         3115.1        4.021e+6 
         3115.4        4.074e+6 
         3115.7        4.107e+6 
           3116        4.096e+6 
         3116.3        4.033e+6 
         3116.6        3.916e+6 
         3116.9        3.761e+6 
         3117.2        3.588e+6 
         3117.5        3.417e+6 
         3117.8        3.267e+6 
         3118.1        3.149e+6 
         3118.4        3.067e+6 
         3118.7        3.017e+6 
           3119        2.996e+6 
         3119.3        2.997e+6 
         3119.6        3.016e+6 
         3119.9        3.049e+6 
         3120.2        3.091e+6 
         3120.5        3.137e+6 
         3120.8        3.179e+6 
         3121.1        3.213e+6 
         3121.4         3.24e+6 
         3121.7        3.268e+6 
           3122        3.305e+6 
         3122.3        3.358e+6 
         3122.6         3.43e+6 
         3122.9        3.514e+6 
         3123.2        3.595e+6 
         3123.5        3.656e+6 
         3123.8        3.683e+6 
         3124.1        3.668e+6 
         3124.4        3.619e+6 
         3124.7        3.556e+6 
           3125        3.504e+6 
         3125.3        3.489e+6 
         3125.6        3.525e+6 
         3125.9        3.614e+6 
         3126.2         3.74e+6 
         3126.5        3.878e+6 
         3126.8        3.998e+6 
         3127.1        4.079e+6 
         3127.4        4.108e+6 
         3127.7        4.085e+6 
           3128        4.024e+6 
         3128.3        3.941e+6 
         3128.6        3.854e+6 
         3128.9        3.772e+6 
         3129.2        3.697e+6 
         3129.5        3.626e+6 
         3129.8        3.556e+6 
         3130.1        3.487e+6 
         3130.4        3.421e+6 
         3130.7        3.365e+6 
           3131        3.322e+6 
         3131.3        3.295e+6 
         3131.6        3.282e+6 
         3131.9        3.277e+6 
         3132.2        3.274e+6 
         3132.5         3.27e+6 
         3132.8        3.261e+6 
         3133.1        3.249e+6 
         3133.4        3.241e+6 
         3133.7        3.243e+6 
           3134        3.265e+6 
         3134.3        3.311e+6 
         3134.6        3.378e+6 
         3134.9        3.459e+6 
         3135.2        3.541e+6 
         3135.5        3.614e+6 
         3135.8        3.674e+6 
         3136.1        3.725e+6 
         3136.4        3.774e+6 
         3136.7        3.828e+6 
           3137         3.89e+6 
         3137.3        3.954e+6 
         3137.6        4.011e+6 
         3137.9        4.052e+6 
         3138.2        4.071e+6 
         3138.5         4.07e+6 
         3138.8        4.057e+6 
         3139.1        4.042e+6 
         3139.4        4.037e+6 
         3139.7        4.047e+6 
           3140        4.074e+6 
         3140.3        4.112e+6 
         3140.6        4.149e+6 
         3140.9        4.168e+6 
         3141.2        4.152e+6 
         3141.5        4.085e+6 
         3141.8         3.96e+6 
         3142.1        3.774e+6 
         3142.4        3.533e+6 
         3142.7         3.25e+6 
           3143        2.947e+6 
         3143.3        2.648e+6 
         3143.6        2.379e+6 
         3143.9        2.169e+6 
         3144.2        2.034e+6 
         3144.5        1.988e+6 
         3144.8        2.031e+6 
         3145.1        2.149e+6 
         3145.4        2.324e+6 
         3145.7        2.529e+6 
           3146        2.739e+6 
         3146.3        2.932e+6 
         3146.6          3.1e+6 
         3146.9        3.241e+6 
         3147.2        3.361e+6 
         3147.5         3.47e+6 
         3147.8        3.576e+6 
         3148.1        3.681e+6 
         3148.4        3.782e+6 
         3148.7        3.876e+6 
           3149        3.956e+6 
         3149.3        4.023e+6 
         3149.6        4.078e+6 
         3149.9        4.124e+6 
         3150.2        4.162e+6 
         3150.5         4.19e+6 
         3150.8        4.206e+6 
         3151.1        4.211e+6 
         3151.4        4.205e+6 
         3151.7        4.194e+6 
           3152        4.183e+6 
         3152.3        4.176e+6 
         3152.6        4.171e+6 
         3152.9        4.162e+6 
         3153.2        4.142e+6 
         3153.5        4.104e+6 
         3153.8        4.047e+6 
         3154.1        3.973e+6 
         3154.4        3.892e+6 
         3154.7        3.811e+6 
           3155        3.738e+6 
         3155.3        3.672e+6 
         3155.6        3.609e+6 
         3155.9        3.542e+6 
         3156.2        3.462e+6 
         3156.5        3.362e+6 
         3156.8        3.242e+6 
         3157.1        3.107e+6 
         3157.4        2.969e+6 
         3157.7        2.839e+6 
           3158        2.731e+6 
         3158.3        2.654e+6 
         3158.6        2.613e+6 
         3158.9        2.604e+6 
         3159.2        2.619e+6 
         3159.5        2.642e+6 
         3159.8         2.66e+6 
         3160.1         2.66e+6 
         3160.4        2.641e+6 
         3160.7        2.609e+6 
           3161        2.578e+6 
         3161.3        2.565e+6 
         3161.6        2.585e+6 
         3161.9        2.649e+6 
         3162.2        2.754e+6 
         3162.5        2.893e+6 
         3162.8        3.046e+6 
         3163.1        3.193e+6 
         3163.4        3.314e+6 
         3163.7        3.397e+6 
           3164        3.439e+6 
         3164.3        3.448e+6 
         3164.6         3.44e+6 
         3164.9        3.433e+6 
         3165.2         3.44e+6 
         3165.5        3.469e+6 
         3165.8        3.521e+6 
         3166.1        3.585e+6 
         3166.4         3.65e+6 
         3166.7        3.698e+6 
           3167        3.718e+6 
         3167.3        3.703e+6 
         3167.6        3.654e+6 
         3167.9        3.586e+6 
         3168.2        3.517e+6 
         3168.5        3.469e+6 
         3168.8        3.461e+6 
         3169.1        3.502e+6 
         3169.4         3.59e+6 
         3169.7        3.716e+6 
           3170        3.864e+6 
         3170.3        4.014e+6 
         3170.6        4.154e+6 
         3170.9        4.272e+6 
         3171.2        4.364e+6 
         3171.5        4.429e+6 
         3171.8        4.466e+6 
         3172.1        4.477e+6 
         3172.4        4.459e+6 
         3172.7        4.415e+6 
           3173        4.348e+6 
         3173.3        4.266e+6 
         3173.6        4.178e+6 
         3173.9        4.097e+6 
         3174.2        4.034e+6 
         3174.5        4.003e+6 
         3174.8        4.008e+6 
         3175.1        4.053e+6 
         3175.4        4.129e+6 
         3175.7        4.222e+6 
           3176        4.311e+6 
         3176.3        4.373e+6 
         3176.6        4.389e+6 
         3176.9        4.348e+6 
         3177.2        4.251e+6 
         3177.5        4.104e+6 
         3177.8        3.922e+6 
         3178.1        3.721e+6 
