# Granada HRES Library
# atmosphere = Phoenix  (atmosphere model used)
# feh = -10  (value for [Fe/H] for the model.)
# logg = 4 log(cm/s2) (value for Log(G) for the model.)
# teff = 4000 K (value for the effective temperature for the model. Temperatures are given in K)
#
# column 1: WAVELENGTH (ANGSTROM), Wavelength in Angstrom
# column 2: FLUX (ERG/CM2/S/A), Flux in erg/cm2/s/A
         3000.2            5633 
         3000.5            5336 
         3000.8            5102 
         3001.1            4932 
         3001.4            4791 
         3001.7            4647 
           3002            4381 
         3002.3            4155 
         3002.6            4135 
         3002.9            4398 
         3003.2            4993 
         3003.5            5904 
         3003.8            7050 
         3004.1            8293 
         3004.4            9486 
         3004.7           10510 
           3005           11260 
         3005.3           11720 
         3005.6           11840 
         3005.9           11590 
         3006.2           10970 
         3006.5           10080 
         3006.8            9011 
         3007.1            7964 
         3007.4            7095 
         3007.7            6524 
           3008            6299 
         3008.3            6406 
         3008.6            6796 
         3008.9            7415 
         3009.2            8222 
         3009.5            9169 
         3009.8           10160 
         3010.1           11060 
         3010.4           11680 
         3010.7           11900 
           3011           11720 
         3011.3           11310 
         3011.6           10870 
         3011.9           10630 
         3012.2           10650 
         3012.5           10850 
         3012.8           11090 
         3013.1           11210 
         3013.4           11130 
         3013.7           10860 
           3014           10470 
         3014.3           10050 
         3014.6            9677 
         3014.9            9383 
         3015.2            9184 
         3015.5            9071 
         3015.8            9022 
         3016.1            9011 
         3016.4            9003 
         3016.7            8955 
           3017            8832 
         3017.3            8633 
         3017.6            8377 
         3017.9            8090 
         3018.2            7775 
         3018.5            7412 
         3018.8            6976 
         3019.1            6446 
         3019.4            5827 
         3019.7            5152 
           3020            4493 
         3020.3            3956 
         3020.6            3656 
         3020.9            3683 
         3021.2            4061 
         3021.5            4735 
         3021.8            5581 
         3022.1            6439 
         3022.4            7147 
         3022.7            7587 
           3023            7702 
         3023.3            7530 
         3023.6            7182 
         3023.9            6805 
         3024.2            6517 
         3024.5            6350 
         3024.8            6264 
         3025.1            6207 
         3025.4            6180 
         3025.7            6258 
           3026            6548 
         3026.3            7107 
         3026.6            7899 
         3026.9            8804 
         3027.2            9688 
         3027.5           10460 
         3027.8           11110 
         3028.1           11660 
         3028.4           12150 
         3028.7           12550 
           3029           12820 
         3029.3           12910 
         3029.6           12790 
         3029.9           12470 
         3030.2           12020 
         3030.5           11550 
         3030.8           11230 
         3031.1           11230 
         3031.4           11660 
         3031.7           12510 
           3032           13580 
         3032.3           14550 
         3032.6           15100 
         3032.9           15060 
         3033.2           14470 
         3033.5           13570 
         3033.8           12680 
         3034.1           12100 
         3034.4           11930 
         3034.7           12090 
           3035           12350 
         3035.3           12460 
         3035.6           12230 
         3035.9           11620 
         3036.2           10680 
         3036.5            9605 
         3036.8            8594 
         3037.1            7847 
         3037.4            7507 
         3037.7            7619 
           3038            8122 
         3038.3            8870 
         3038.6            9686 
         3038.9           10420 
         3039.2           10940 
         3039.5           11180 
         3039.8           11110 
         3040.1           10740 
         3040.4           10140 
         3040.7            9404 
           3041            8681 
         3041.3            8125 
         3041.6            7878 
         3041.9            8034 
         3042.2            8597 
         3042.5            9466 
         3042.8           10470 
         3043.1           11400 
         3043.4           12130 
         3043.7           12590 
           3044           12800 
         3044.3           12830 
         3044.6           12770 
         3044.9           12680 
         3045.2           12590 
         3045.5           12450 
         3045.8           12140 
         3046.1           11590 
         3046.4           10770 
         3046.7            9764 
           3047            8738 
         3047.3            7892 
         3047.6            7393 
         3047.9            7322 
         3048.2            7675 
         3048.5            8357 
         3048.8            9214 
         3049.1           10050 
         3049.4           10670 
         3049.7           10960 
           3050           10950 
         3050.3           10780 
         3050.6           10660 
         3050.9           10780 
         3051.2           11190 
         3051.5           11830 
         3051.8           12540 
         3052.1           13110 
         3052.4           13360 
         3052.7           13210 
           3053           12660 
         3053.3           11840 
         3053.6           10950 
         3053.9           10220 
         3054.2            9824 
         3054.5            9825 
         3054.8           10170 
         3055.1           10680 
         3055.4           11170 
         3055.7           11430 
           3056           11360 
         3056.3           10940 
         3056.6           10250 
         3056.9            9425 
         3057.2            8620 
         3057.5            7942 
         3057.8            7433 
         3058.1            7082 
         3058.4            6875 
         3058.7            6836 
           3059            7034 
         3059.3            7544 
         3059.6            8386 
         3059.9            9490 
         3060.2           10710 
         3060.5           11860 
         3060.8           12790 
         3061.1           13410 
         3061.4           13730 
         3061.7           13770 
           3062           13560 
         3062.3           13060 
         3062.6           12210 
         3062.9           11000 
         3063.2            9557 
         3063.5            8081 
         3063.8            6823 
         3064.1            5963 
         3064.4            5549 
         3064.7            5496 
           3065            5634 
         3065.3            5789 
         3065.6            5853 
         3065.9            5804 
         3066.2            5692 
         3066.5            5591 
         3066.8            5560 
         3067.1            5629 
         3067.4            5805 
         3067.7            6085 
           3068            6456 
         3068.3            6889 
         3068.6            7324 
         3068.9            7690 
         3069.2            7933 
         3069.5            8058 
         3069.8            8152 
         3070.1            8355 
         3070.4            8789 
         3070.7            9486 
           3071           10370 
         3071.3           11290 
         3071.6           12140 
         3071.9           12900 
         3072.2           13610 
         3072.5           14300 
         3072.8           14900 
         3073.1           15300 
         3073.4           15430 
         3073.7           15290 
           3074           14950 
         3074.3           14540 
         3074.6           14140 
         3074.9           13860 
         3075.2           13810 
         3075.5           14120 
         3075.8           14820 
         3076.1           15820 
         3076.4           16890 
         3076.7           17740 
           3077           18150 
         3077.3           18060 
         3077.6           17530 
         3077.9           16780 
         3078.2           16030 
         3078.5           15420 
         3078.8           14940 
         3079.1           14480 
         3079.4           13890 
         3079.7           13090 
           3080           12090 
         3080.3           10990 
         3080.6            9886 
         3080.9            8873 
         3081.2            8030 
         3081.5            7420 
         3081.8            7078 
         3082.1            6993 
         3082.4            7098 
         3082.7            7310 
           3083            7570 
         3083.3            7875 
         3083.6            8251 
         3083.9            8709 
         3084.2            9218 
         3084.5            9726 
         3084.8           10200 
         3085.1           10620 
         3085.4           10960 
         3085.7           11180 
           3086           11260 
         3086.3           11240 
         3086.6           11280 
         3086.9           11560 
         3087.2           12200 
         3087.5           13200 
         3087.8           14350 
         3088.1           15320 
         3088.4           15760 
         3088.7           15470 
           3089           14430 
         3089.3           12890 
         3089.6           11200 
         3089.9            9666 
         3090.2            8477 
         3090.5            7655 
         3090.8            7112 
         3091.1            6722 
         3091.4            6375 
         3091.7            6017 
           3092            5669 
         3092.3            5426 
         3092.6            5417 
         3092.9            5735 
         3093.2            6380 
         3093.5            7237 
         3093.8            8121 
         3094.1            8845 
         3094.4            9282 
         3094.7            9388 
           3095            9197 
         3095.3            8798 
         3095.6            8321 
         3095.9            7925 
         3096.2            7776 
         3096.5            7998 
         3096.8            8615 
         3097.1            9506 
         3097.4           10420 
         3097.7           11050 
           3098           11180 
         3098.3           10740 
         3098.6            9857 
         3098.9            8773 
         3099.2            7772 
         3099.5            7071 
         3099.8            6771 
         3100.1            6835 
         3100.4            7123 
         3100.7            7463 
           3101            7735 
         3101.3            8112 
         3101.6            8445 
         3101.9            9026 
         3102.2            9884 
         3102.5           10970 
         3102.8           12130 
         3103.1           13270 
         3103.4           14220 
         3103.7           14840 
           3104           15050 
         3104.3           14760 
         3104.6           14010 
         3104.9           12920 
         3105.2           11720 
         3105.5           10690 
         3105.8            9971 
         3106.1            9667 
         3106.4            9745 
         3106.7           10110 
           3107           10650 
         3107.3           11250 
         3107.6           11800 
         3107.9           12210 
         3108.2           12470 
         3108.5           12600 
         3108.8           12750 
         3109.1           13060 
         3109.4           13660 
         3109.7           14550 
           3110           15610 
         3110.3           16660 
         3110.6           17450 
         3110.9           17820 
         3111.2           17700 
         3111.5           17210 
         3111.8           16550 
         3112.1           15970 
         3112.4           15690 
         3112.7           15870 
           3113           16690 
         3113.3           18280 
         3113.6           20770 
         3113.9           24120 
         3114.2           28040 
         3114.5           31950 
         3114.8           35040 
         3115.1           36560 
         3115.4           36050 
         3115.7           33570 
           3116           29640 
         3116.3           25130 
         3116.6           20970 
         3116.9           17890 
         3117.2           16280 
         3117.5           16150 
         3117.8           17140 
         3118.1           18720 
         3118.4           20290 
         3118.7           21480 
           3119           22190 
         3119.3           22660 
         3119.6           23200 
         3119.9           23980 
         3120.2           24800 
         3120.5           25190 
         3120.8           24600 
         3121.1           22830 
         3121.4           20130 
         3121.7           17130 
           3122           14580 
         3122.3           12960 
         3122.6           12430 
         3122.9           12810 
         3123.2           13730 
         3123.5           14810 
         3123.8           15760 
         3124.1           16470 
         3124.4           16940 
         3124.7           17320 
           3125           17740 
         3125.3           18320 
         3125.6           19150 
         3125.9           20250 
         3126.2           21480 
         3126.5           22580 
         3126.8           23120 
         3127.1           22750 
         3127.4           21390 
         3127.7           19320 
           3128           17040 
         3128.3           15090 
         3128.6           13750 
         3128.9           13070 
         3129.2           12960 
         3129.5           13270 
         3129.8           13910 
         3130.1           14920 
         3130.4           16300 
         3130.7           17980 
           3131           19730 
         3131.3           21160 
         3131.6           21850 
         3131.9           21580 
         3132.2           20350 
         3132.5           18490 
         3132.8           16450 
         3133.1           14650 
         3133.4           13450 
         3133.7           13100 
           3134           13670 
         3134.3           15020 
         3134.6           16750 
         3134.9           18320 
         3135.2           19270 
         3135.5           19400 
         3135.8           18880 
         3136.1           18200 
         3136.4           17900 
         3136.7           18470 
           3137           20090 
         3137.3           22600 
         3137.6           25540 
         3137.9           28180 
         3138.2           29900 
         3138.5           30290 
         3138.8           29380 
         3139.1           27540 
         3139.4           25320 
         3139.7           23230 
           3140           21650 
         3140.3           20660 
         3140.6           20200 
         3140.9           20040 
         3141.2           20000 
         3141.5           19960 
         3141.8           19920 
         3142.1           19820 
         3142.4           19560 
         3142.7           19040 
           3143           18270 
         3143.3           17410 
         3143.6           16700 
         3143.9           16340 
         3144.2           16350 
         3144.5           16670 
         3144.8           17160 
         3145.1           17700 
         3145.4           18110 
         3145.7           18180 
           3146           17810 
         3146.3           17090 
         3146.6           16390 
         3146.9           16240 
         3147.2           17130 
         3147.5           19230 
         3147.8           22360 
         3148.1           25870 
         3148.4           28920 
         3148.7           30670 
           3149           30660 
         3149.3           28980 
         3149.6           26150 
         3149.9           22970 
         3150.2           20090 
         3150.5           17960 
         3150.8           16680 
         3151.1           16180 
         3151.4           16310 
         3151.7           16860 
           3152           17620 
         3152.3           18340 
         3152.6           18810 
         3152.9           18900 
         3153.2           18630 
         3153.5           18210 
         3153.8           17970 
         3154.1           18230 
         3154.4           19110 
         3154.7           20390 
           3155           21730 
         3155.3           22730 
         3155.6           23250 
         3155.9           23450 
         3156.2           23720 
         3156.5           24480 
         3156.8           26040 
         3157.1           28430 
         3157.4           31360 
         3157.7           34400 
           3158           37060 
         3158.3           39030 
         3158.6           40100 
         3158.9           40180 
         3159.2           39160 
         3159.5           37030 
         3159.8           33990 
         3160.1           30560 
         3160.4           27480 
         3160.7           25530 
           3161           25190 
         3161.3           26600 
         3161.6           29580 
         3161.9           33620 
         3162.2           38050 
         3162.5           42000 
         3162.8           44590 
         3163.1           45280 
         3163.4           44060 
         3163.7           41570 
           3164           38750 
         3164.3           36540 
         3164.6           35460 
         3164.9           35730 
         3165.2           37400 
         3165.5           40510 
         3165.8           45090 
         3166.1           50920 
         3166.4           57250 
         3166.7           62890 
           3167           66470 
         3167.3           67040 
         3167.6           64620 
         3167.9           60350 
         3168.2           56130 
         3168.5           53940 
         3168.8           54950 
         3169.1           59010 
         3169.4           64710 
         3169.7           70070 
           3170           73410 
         3170.3           74100 
         3170.6           72750 
         3170.9           70690 
         3171.2           69240 
         3171.5           68910 
         3171.8           69270 
         3172.1           69300 
         3172.4           68140 
         3172.7           65770 
           3173           63150 
         3173.3           61700 
         3173.6           62510 
         3173.9           65650 
         3174.2           70320 
         3174.5           75310 
         3174.8           79820 
         3175.1           83580 
         3175.4           86550 
         3175.7           88540 
           3176           89000 
         3176.3           87300 
         3176.6           83220 
         3176.9           77340 
         3177.2           71000 
         3177.5           65730 
         3177.8           62490 
         3178.1           61160 
