# Granada HRES Library
# atmosphere = Spectrum  (atmosphere model used)
# feh = -5  (value for [Fe/H] for the model.)
# logg = 0.5 log(cm/s2) (value for Log(G) for the model.)
# teff = 5500 K (value for the effective temperature for the model. Temperatures are given in K)
#
# column 1: WAVELENGTH (ANGSTROM), Wavelength in Angstrom
# column 2: FLUX (ERG/CM2/S/A), Flux in erg/cm2/s/A
         3000.2          681500 
         3000.5          672400 
         3000.8          663300 
         3001.1          653700 
         3001.4          643000 
         3001.7          632200 
           3002          623000 
         3002.3          619000 
         3002.6          623900 
         3002.9          641300 
         3003.2          673300 
         3003.5          719600 
         3003.8          777900 
         3004.1          843400 
         3004.4          910100 
         3004.7          972100 
           3005        1.024e+6 
         3005.3         1.06e+6 
         3005.6         1.08e+6 
         3005.9        1.081e+6 
         3006.2        1.066e+6 
         3006.5        1.037e+6 
         3006.8          998200 
         3007.1          955500 
         3007.4          913800 
         3007.7          878700 
           3008          854600 
         3008.3          845100 
         3008.6          852100 
         3008.9          875100 
         3009.2          911300 
         3009.5          955700 
         3009.8        1.002e+6 
         3010.1        1.044e+6 
         3010.4        1.076e+6 
         3010.7        1.096e+6 
           3011        1.102e+6 
         3011.3        1.097e+6 
         3011.6        1.085e+6 
         3011.9        1.068e+6 
         3012.2        1.052e+6 
         3012.5        1.036e+6 
         3012.8        1.023e+6 
         3013.1        1.013e+6 
         3013.4        1.006e+6 
         3013.7          999700 
           3014          994300 
         3014.3          989000 
         3014.6          983000 
         3014.9          976600 
         3015.2          970400 
         3015.5          965700 
         3015.8          962800 
         3016.1          961600 
         3016.4          961100 
         3016.7          959300 
           3017          954500 
         3017.3          944800 
         3017.6          929000 
         3017.9          905900 
         3018.2          875200 
         3018.5          836500 
         3018.8          790200 
         3019.1          738000 
         3019.4          683100 
         3019.7          630800 
           3020          587800 
         3020.3          561500 
         3020.6          558700 
         3020.9          583500 
         3021.2          635300 
         3021.5          708700 
         3021.8          794600 
         3022.1          881500 
         3022.4          958800 
         3022.7        1.018e+6 
           3023        1.056e+6 
         3023.3        1.071e+6 
         3023.6        1.067e+6 
         3023.9        1.048e+6 
         3024.2        1.019e+6 
         3024.5          983500 
         3024.8          946900 
         3025.1          913800 
         3025.4          889800 
         3025.7          880200 
           3026          888300 
         3026.3          914800 
         3026.6          956800 
         3026.9        1.008e+6 
         3027.2        1.062e+6 
         3027.5         1.11e+6 
         3027.8        1.147e+6 
         3028.1        1.168e+6 
         3028.4        1.172e+6 
         3028.7        1.159e+6 
           3029        1.133e+6 
         3029.3        1.098e+6 
         3029.6        1.059e+6 
         3029.9        1.021e+6 
         3030.2          987400 
         3030.5          961900 
         3030.8          946600 
         3031.1          942200 
         3031.4          949000 
         3031.7          964800 
           3032          986400 
         3032.3         1.01e+6 
         3032.6        1.032e+6 
         3032.9         1.05e+6 
         3033.2        1.064e+6 
         3033.5        1.076e+6 
         3033.8        1.087e+6 
         3034.1        1.099e+6 
         3034.4        1.113e+6 
         3034.7        1.125e+6 
           3035        1.131e+6 
         3035.3        1.128e+6 
         3035.6         1.11e+6 
         3035.9        1.075e+6 
         3036.2        1.026e+6 
         3036.5          968100 
         3036.8          908400 
         3037.1          856000 
         3037.4          818400 
         3037.7          800500 
           3038          803900 
         3038.3          826300 
         3038.6          862800 
         3038.9          906500 
         3039.2          950500 
         3039.5          988500 
         3039.8        1.015e+6 
         3040.1        1.029e+6 
         3040.4        1.028e+6 
         3040.7        1.015e+6 
           3041          993600 
         3041.3          967700 
         3041.6          942900 
         3041.9          923000 
         3042.2          910900 
         3042.5          907000 
         3042.8          909800 
         3043.1          916500 
         3043.4          924600 
         3043.7          932100 
           3044          938800 
         3044.3          945600 
         3044.6          953700 
         3044.9          963300 
         3045.2          972900 
         3045.5          980300 
         3045.8          982100 
         3046.1          975500 
         3046.4          960200 
         3046.7          938600 
           3047          915100 
         3047.3          895800 
         3047.6          886100 
         3047.9          889000 
         3048.2          905100 
         3048.5          931800 
         3048.8          965500 
         3049.1        1.002e+6 
         3049.4        1.038e+6 
         3049.7        1.071e+6 
           3050        1.103e+6 
         3050.3        1.135e+6 
         3050.6        1.169e+6 
         3050.9        1.206e+6 
         3051.2        1.242e+6 
         3051.5        1.275e+6 
         3051.8        1.297e+6 
         3052.1        1.305e+6 
         3052.4        1.296e+6 
         3052.7        1.269e+6 
           3053         1.23e+6 
         3053.3        1.185e+6 
         3053.6        1.141e+6 
         3053.9        1.105e+6 
         3054.2        1.081e+6 
         3054.5        1.071e+6 
         3054.8        1.071e+6 
         3055.1        1.076e+6 
         3055.4        1.079e+6 
         3055.7        1.074e+6 
           3056        1.056e+6 
         3056.3        1.024e+6 
         3056.6          981900 
         3056.9          935100 
         3057.2          890400 
         3057.5          853500 
         3057.8          827700 
         3058.1          814100 
         3058.4          811700 
         3058.7          819900 
           3059          838200 
         3059.3          867200 
         3059.6          906300 
         3059.9          953400 
         3060.2        1.004e+6 
         3060.5        1.053e+6 
         3060.8        1.094e+6 
         3061.1        1.121e+6 
         3061.4        1.132e+6 
         3061.7        1.129e+6 
           3062        1.111e+6 
         3062.3        1.085e+6 
         3062.6        1.053e+6 
         3062.9         1.02e+6 
         3063.2          992000 
         3063.5          969600 
         3063.8          954300 
         3064.1          944100 
         3064.4          935800 
         3064.7          925900 
           3065          911000 
         3065.3          890400 
         3065.6          865800 
         3065.9          841000 
         3066.2          821300 
         3066.5          811700 
         3066.8          815800 
         3067.1          835700 
         3067.4          870200 
         3067.7          917000 
           3068          971800 
         3068.3        1.029e+6 
         3068.6        1.083e+6 
         3068.9        1.128e+6 
         3069.2        1.159e+6 
         3069.5        1.173e+6 
         3069.8        1.169e+6 
         3070.1        1.151e+6 
         3070.4         1.12e+6 
         3070.7        1.082e+6 
           3071        1.041e+6 
         3071.3        1.001e+6 
         3071.6          965500 
         3071.9          940100 
         3072.2          927700 
         3072.5          930100 
         3072.8          946400 
         3073.1          971700 
         3073.4          998900 
         3073.7         1.02e+6 
           3074        1.029e+6 
         3074.3        1.025e+6 
         3074.6         1.01e+6 
         3074.9          992400 
         3075.2          981000 
         3075.5          982100 
         3075.8          997900 
         3076.1        1.024e+6 
         3076.4        1.054e+6 
         3076.7        1.077e+6 
           3077        1.086e+6 
         3077.3        1.079e+6 
         3077.6        1.059e+6 
         3077.9        1.033e+6 
         3078.2        1.009e+6 
         3078.5          995100 
         3078.8          996600 
         3079.1        1.013e+6 
         3079.4         1.04e+6 
         3079.7        1.071e+6 
           3080        1.097e+6 
         3080.3        1.113e+6 
         3080.6        1.117e+6 
         3080.9        1.108e+6 
         3081.2         1.09e+6 
         3081.5        1.067e+6 
         3081.8        1.046e+6 
         3082.1        1.031e+6 
         3082.4        1.028e+6 
         3082.7        1.038e+6 
           3083        1.063e+6 
         3083.3        1.102e+6 
         3083.6        1.152e+6 
         3083.9        1.208e+6 
         3084.2        1.263e+6 
         3084.5        1.311e+6 
         3084.8        1.347e+6 
         3085.1        1.366e+6 
         3085.4        1.364e+6 
         3085.7        1.341e+6 
           3086        1.299e+6 
         3086.3        1.241e+6 
         3086.6        1.172e+6 
         3086.9        1.101e+6 
         3087.2        1.035e+6 
         3087.5          979900 
         3087.8          941500 
         3088.1          920900 
         3088.4          916900 
         3088.7          925700 
           3089          942700 
         3089.3          963900 
         3089.6          986500 
         3089.9        1.009e+6 
         3090.2         1.03e+6 
         3090.5        1.049e+6 
         3090.8        1.063e+6 
         3091.1        1.071e+6 
         3091.4        1.068e+6 
         3091.7        1.056e+6 
           3092        1.035e+6 
         3092.3        1.008e+6 
         3092.6          981400 
         3092.9          962500 
         3093.2          955800 
         3093.5          962900 
         3093.8          981600 
         3094.1        1.006e+6 
         3094.4         1.03e+6 
         3094.7        1.046e+6 
           3095        1.051e+6 
         3095.3        1.043e+6 
         3095.6        1.024e+6 
         3095.9          999000 
         3096.2          974500 
         3096.5          956200 
         3096.8          947700 
         3097.1          949200 
         3097.4          957600 
         3097.7          967000 
           3098          970700 
         3098.3          963200 
         3098.6          941900 
         3098.9          908100 
         3099.2          865900 
         3099.5          821100 
         3099.8          780200 
         3100.1          748600 
         3100.4          730300 
         3100.7          727400 
           3101          740800 
         3101.3          769700 
         3101.6          812100 
         3101.9          864400 
         3102.2          922100 
         3102.5          978900 
         3102.8        1.029e+6 
         3103.1        1.067e+6 
         3103.4         1.09e+6 
         3103.7        1.095e+6 
           3104        1.085e+6 
         3104.3        1.065e+6 
         3104.6         1.04e+6 
         3104.9        1.018e+6 
         3105.2        1.005e+6 
         3105.5        1.004e+6 
         3105.8        1.019e+6 
         3106.1        1.047e+6 
         3106.4        1.085e+6 
         3106.7        1.129e+6 
           3107        1.171e+6 
         3107.3        1.209e+6 
         3107.6        1.238e+6 
         3107.9        1.256e+6 
         3108.2        1.262e+6 
         3108.5        1.255e+6 
         3108.8        1.239e+6 
         3109.1        1.215e+6 
         3109.4        1.189e+6 
         3109.7        1.165e+6 
           3110        1.148e+6 
         3110.3        1.144e+6 
         3110.6        1.152e+6 
         3110.9        1.173e+6 
         3111.2        1.203e+6 
         3111.5        1.238e+6 
         3111.8        1.272e+6 
         3112.1          1.3e+6 
         3112.4        1.319e+6 
         3112.7        1.327e+6 
           3113        1.322e+6 
         3113.3        1.306e+6 
         3113.6        1.285e+6 
         3113.9        1.261e+6 
         3114.2        1.241e+6 
         3114.5        1.227e+6 
         3114.8        1.222e+6 
         3115.1        1.223e+6 
         3115.4        1.228e+6 
         3115.7        1.231e+6 
           3116        1.227e+6 
         3116.3        1.211e+6 
         3116.6        1.183e+6 
         3116.9        1.144e+6 
         3117.2        1.097e+6 
         3117.5        1.047e+6 
         3117.8        1.001e+6 
         3118.1          960400 
         3118.4          928800 
         3118.7          906800 
           3119          893600 
         3119.3          888200 
         3119.6          889200 
         3119.9          895900 
         3120.2          907600 
         3120.5          923700 
         3120.8          943400 
         3121.1          965800 
         3121.4          990900 
         3121.7        1.019e+6 
           3122        1.051e+6 
         3122.3        1.086e+6 
         3122.6        1.123e+6 
         3122.9        1.157e+6 
         3123.2        1.184e+6 
         3123.5        1.199e+6 
         3123.8        1.197e+6 
         3124.1         1.18e+6 
         3124.4         1.15e+6 
         3124.7        1.117e+6 
           3125        1.091e+6 
         3125.3        1.081e+6 
         3125.6        1.092e+6 
         3125.9        1.124e+6 
         3126.2        1.172e+6 
         3126.5        1.225e+6 
         3126.8        1.273e+6 
         3127.1        1.305e+6 
         3127.4        1.316e+6 
         3127.7        1.306e+6 
           3128        1.277e+6 
         3128.3        1.237e+6 
         3128.6         1.19e+6 
         3128.9        1.143e+6 
         3129.2        1.099e+6 
         3129.5        1.056e+6 
         3129.8        1.017e+6 
         3130.1          981700 
         3130.4          951500 
         3130.7          927900 
           3131          911800 
         3131.3          903200 
         3131.6          900700 
         3131.9          902700 
         3132.2          907400 
         3132.5          914000 
         3132.8          921900 
         3133.1          932300 
         3133.4          946200 
         3133.7          964800 
           3134          989100 
         3134.3        1.019e+6 
         3134.6        1.052e+6 
         3134.9        1.087e+6 
         3135.2        1.121e+6 
         3135.5        1.151e+6 
         3135.8        1.177e+6 
         3136.1        1.201e+6 
         3136.4        1.224e+6 
         3136.7        1.248e+6 
           3137        1.274e+6 
         3137.3        1.301e+6 
         3137.6        1.326e+6 
         3137.9        1.344e+6 
         3138.2        1.355e+6 
         3138.5        1.357e+6 
         3138.8        1.351e+6 
         3139.1        1.343e+6 
         3139.4        1.334e+6 
         3139.7         1.33e+6 
           3140         1.33e+6 
         3140.3        1.334e+6 
         3140.6        1.339e+6 
         3140.9        1.339e+6 
         3141.2        1.329e+6 
         3141.5        1.304e+6 
         3141.8        1.264e+6 
         3142.1        1.209e+6 
         3142.4        1.143e+6 
         3142.7         1.07e+6 
           3143          994600 
         3143.3          921600 
         3143.6          856000 
         3143.9          802800 
         3144.2          765700 
         3144.5          748300 
         3144.8          752000 
         3145.1          776000 
         3145.4          817000 
         3145.7          869700 
           3146          928000 
         3146.3          986200 
         3146.6         1.04e+6 
         3146.9        1.089e+6 
         3147.2        1.132e+6 
         3147.5         1.17e+6 
         3147.8        1.206e+6 
         3148.1        1.239e+6 
         3148.4         1.27e+6 
         3148.7        1.297e+6 
           3149        1.322e+6 
         3149.3        1.343e+6 
         3149.6        1.362e+6 
         3149.9        1.378e+6 
         3150.2        1.392e+6 
         3150.5        1.401e+6 
         3150.8        1.406e+6 
         3151.1        1.407e+6 
         3151.4        1.404e+6 
         3151.7        1.398e+6 
           3152        1.392e+6 
         3152.3        1.386e+6 
         3152.6        1.378e+6 
         3152.9        1.367e+6 
         3153.2         1.35e+6 
         3153.5        1.328e+6 
         3153.8        1.299e+6 
         3154.1        1.267e+6 
         3154.4        1.236e+6 
         3154.7        1.209e+6 
           3155        1.188e+6 
         3155.3        1.177e+6 
         3155.6        1.172e+6 
         3155.9        1.173e+6 
         3156.2        1.175e+6 
         3156.5        1.173e+6 
         3156.8        1.163e+6 
         3157.1        1.145e+6 
         3157.4        1.117e+6 
         3157.7        1.082e+6 
           3158        1.046e+6 
         3158.3        1.013e+6 
         3158.6          986300 
         3158.9          967900 
         3159.2          956700 
         3159.5          949000 
         3159.8          939500 
         3160.1          923800 
         3160.4          900700 
         3160.7          872600 
           3161          845100 
         3161.3          825200 
         3161.6          820300 
         3161.9          835200 
         3162.2          870600 
         3162.5          923600 
         3162.8          987500 
         3163.1        1.053e+6 
         3163.4        1.111e+6 
         3163.7        1.155e+6 
           3164        1.181e+6 
         3164.3        1.191e+6 
         3164.6        1.189e+6 
         3164.9        1.182e+6 
         3165.2        1.176e+6 
         3165.5        1.174e+6 
         3165.8        1.177e+6 
         3166.1        1.185e+6 
         3166.4        1.192e+6 
         3166.7        1.195e+6 
           3167        1.191e+6 
         3167.3        1.178e+6 
         3167.6        1.158e+6 
         3167.9        1.138e+6 
         3168.2        1.124e+6 
         3168.5        1.122e+6 
         3168.8        1.135e+6 
         3169.1        1.164e+6 
         3169.4        1.206e+6 
         3169.7        1.254e+6 
           3170        1.304e+6 
         3170.3         1.35e+6 
         3170.6         1.39e+6 
         3170.9        1.424e+6 
         3171.2        1.451e+6 
         3171.5        1.472e+6 
         3171.8        1.488e+6 
         3172.1        1.498e+6 
         3172.4        1.501e+6 
         3172.7        1.497e+6 
           3173        1.485e+6 
         3173.3        1.467e+6 
         3173.6        1.446e+6 
         3173.9        1.424e+6 
         3174.2        1.407e+6 
         3174.5        1.396e+6 
         3174.8        1.395e+6 
         3175.1        1.404e+6 
         3175.4         1.42e+6 
         3175.7        1.438e+6 
           3176        1.454e+6 
         3176.3        1.461e+6 
         3176.6        1.455e+6 
         3176.9        1.433e+6 
         3177.2        1.395e+6 
         3177.5        1.345e+6 
         3177.8        1.286e+6 
         3178.1        1.223e+6 
