# Granada HRES Library
# atmosphere = Spectrum  (atmosphere model used)
# feh = 0  (value for [Fe/H] for the model.)
# logg = 1.5 log(cm/s2) (value for Log(G) for the model.)
# teff = 5250 K (value for the effective temperature for the model. Temperatures are given in K)
#
# column 1: WAVELENGTH (ANGSTROM), Wavelength in Angstrom
# column 2: FLUX (ERG/CM2/S/A), Flux in erg/cm2/s/A
         3000.2          155800 
         3000.5          155600 
         3000.8          157600 
         3001.1          161600 
         3001.4          167500 
         3001.7          175200 
           3002          186300 
         3002.3          203400 
         3002.6          230400 
         3002.9          271700 
         3003.2          330900 
         3003.5          409500 
         3003.8          505400 
         3004.1          612900 
         3004.4          722600 
         3004.7          822900 
           3005          902400 
         3005.3          951100 
         3005.6          963000 
         3005.9          936400 
         3006.2          875200 
         3006.5          788300 
         3006.8          687600 
         3007.1          586900 
         3007.4          498900 
         3007.7          433700 
           3008          397300 
         3008.3          392000 
         3008.6          416600 
         3008.9          468000 
         3009.2          540200 
         3009.5          625000 
         3009.8          712800 
         3010.1          792400 
         3010.4          854000 
         3010.7          890000 
           3011          899900 
         3011.3          888100 
         3011.6          864500 
         3011.9          839800 
         3012.2          821700 
         3012.5          813400 
         3012.8          813700 
         3013.1          818800 
         3013.4          824700 
         3013.7          828100 
           3014          827900 
         3014.3          823400 
         3014.6          815100 
         3014.9          803100 
         3015.2          788400 
         3015.5          770900 
         3015.8          750700 
         3016.1          726200 
         3016.4          695400 
         3016.7          656700 
           3017          609500 
         3017.3          555000 
         3017.6          495900 
         3017.9          435100 
         3018.2          374900 
         3018.5          317400 
         3018.8          263200 
         3019.1          213700 
         3019.4          170300 
         3019.7          134600 
           3020          108800 
         3020.3           94900 
         3020.6           95230 
         3020.9          111600 
         3021.2          145100 
         3021.5          195000 
         3021.8          258500 
         3022.1          330400 
         3022.4          403900 
         3022.7          471500 
           3023          526700 
         3023.3          565600 
         3023.6          587200 
         3023.9          592200 
         3024.2          582600 
         3024.5          561200 
         3024.8          533000 
         3025.1          505300 
         3025.4          487900 
         3025.7          491500 
           3026          524800 
         3026.3          590800 
         3026.6          685100 
         3026.9          797100 
         3027.2          912100 
         3027.5        1.015e+6 
         3027.8        1.094e+6 
         3028.1         1.14e+6 
         3028.4        1.151e+6 
         3028.7        1.131e+6 
           3029        1.085e+6 
         3029.3        1.024e+6 
         3029.6          955700 
         3029.9          890100 
         3030.2          832400 
         3030.5          788000 
         3030.8          760900 
         3031.1          755500 
         3031.4          774200 
         3031.7          815500 
           3032          873300 
         3032.3          937800 
         3032.6          999300 
         3032.9         1.05e+6 
         3033.2        1.088e+6 
         3033.5        1.115e+6 
         3033.8        1.135e+6 
         3034.1        1.151e+6 
         3034.4        1.164e+6 
         3034.7         1.17e+6 
           3035        1.162e+6 
         3035.3         1.13e+6 
         3035.6        1.068e+6 
         3035.9          975400 
         3036.2          858000 
         3036.5          729400 
         3036.8          606400 
         3037.1          505700 
         3037.4          440100 
         3037.7          416300 
           3038          432400 
         3038.3          480900 
         3038.6          550100 
         3038.9          626400 
         3039.2          697500 
         3039.5          753900 
         3039.8          790300 
         3040.1          804500 
         3040.4          798200 
         3040.7          775800 
           3041          743600 
         3041.3          709300 
         3041.6          681000 
         3041.9          666300 
         3042.2          669600 
         3042.5          691700 
         3042.8          727600 
         3043.1          769200 
         3043.4          807400 
         3043.7          835500 
           3044          850400 
         3044.3          852700 
         3044.6          845000 
         3044.9          829800 
         3045.2          807900 
         3045.5          777600 
         3045.8          736000 
         3046.1          682000 
         3046.4          617200 
         3046.7          548100 
           3047          485200 
         3047.3          440800 
         3047.6          424700 
         3047.9          441200 
         3048.2          487700 
         3048.5          555200 
         3048.8          630100 
         3049.1          699100 
         3049.4          753300 
         3049.7          790600 
           3050          817300 
         3050.3          845700 
         3050.6          888200 
         3050.9          951600 
         3051.2        1.034e+6 
         3051.5        1.123e+6 
         3051.8        1.199e+6 
         3052.1        1.246e+6 
         3052.4         1.25e+6 
         3052.7        1.209e+6 
           3053        1.132e+6 
         3053.3        1.036e+6 
         3053.6          939500 
         3053.9          860500 
         3054.2          810700 
         3054.5          793300 
         3054.8          802500 
         3055.1          826000 
         3055.4          847600 
         3055.7          852500 
           3056          830100 
         3056.3          777500 
         3056.6          700000 
         3056.9          608200 
         3057.2          515000 
         3057.5          432100 
         3057.8          367700 
         3058.1          326400 
         3058.4          310300 
         3058.7          320800 
           3059          360200 
         3059.3          428100 
         3059.6          522800 
         3059.9          637900 
         3060.2          762400 
         3060.5          883300 
         3060.8          986800 
         3061.1        1.062e+6 
         3061.4        1.104e+6 
         3061.7        1.109e+6 
           3062        1.081e+6 
         3062.3        1.025e+6 
         3062.6          950500 
         3062.9          866600 
         3063.2          784100 
         3063.5          712600 
         3063.8          659000 
         3064.1          625400 
         3064.4          609300 
         3064.7          603400 
           3065          598800 
         3065.3          587200 
         3065.6          564600 
         3065.9          532300 
         3066.2          496200 
         3066.5          466500 
         3066.8          454000 
         3067.1          467300 
         3067.4          511400 
         3067.7          585200 
           3068          683300 
         3068.3          794700 
         3068.6          905600 
         3068.9        1.003e+6 
         3069.2        1.075e+6 
         3069.5        1.117e+6 
         3069.8        1.129e+6 
         3070.1        1.116e+6 
         3070.4        1.086e+6 
         3070.7        1.044e+6 
           3071          996500 
         3071.3          945000 
         3071.6          893200 
         3071.9          846400 
         3072.2          811300 
         3072.5          794200 
         3072.8          796400 
         3073.1          814300 
         3073.4          838200 
         3073.7          856500 
           3074          860600 
         3074.3          847900 
         3074.6          823700 
         3074.9          800300 
         3075.2          791100 
         3075.5          806400 
         3075.8          847200 
         3076.1          905300 
         3076.4          965300 
         3076.7        1.011e+6 
           3077        1.031e+6 
         3077.3         1.02e+6 
         3077.6          984400 
         3077.9          937000 
         3078.2          892500 
         3078.5          863900 
         3078.8          858300 
         3079.1          874700 
         3079.4          906200 
         3079.7          941200 
           3080          968200 
         3080.3          979200 
         3080.6          971100 
         3080.9          946200 
         3081.2          909900 
         3081.5          871000 
         3081.8          837300 
         3082.1          816400 
         3082.4          813000 
         3082.7          829900 
           3083          868900 
         3083.3          930900 
         3083.6        1.014e+6 
         3083.9        1.115e+6 
         3084.2        1.225e+6 
         3084.5        1.333e+6 
         3084.8        1.427e+6 
         3085.1        1.492e+6 
         3085.4        1.518e+6 
         3085.7        1.499e+6 
           3086        1.432e+6 
         3086.3        1.325e+6 
         3086.6        1.192e+6 
         3086.9        1.051e+6 
         3087.2          921100 
         3087.5          816500 
         3087.8          746000 
         3088.1          709600 
         3088.4          700800 
         3088.7          708400 
           3089          721000 
         3089.3          731100 
         3089.6          736300 
         3089.9          738200 
         3090.2          740100 
         3090.5          744900 
         3090.8          753500 
         3091.1          764000 
         3091.4          771400 
         3091.7          769900 
           3092          755900 
         3092.3          729600 
         3092.6          697100 
         3092.9          668800 
         3093.2          655200 
         3093.5          662100 
         3093.8          689000 
         3094.1          728600 
         3094.4          769100 
         3094.7          798900 
           3095          809700 
         3095.3          799500 
         3095.6          772100 
         3095.9          736700 
         3096.2          704400 
         3096.5          684100 
         3096.8          680200 
         3097.1          690600 
         3097.4          706900 
         3097.7          717200 
           3098          709200 
         3098.3          676000 
         3098.6          617000 
         3098.9          539000 
         3099.2          453200 
         3099.5          371600 
         3099.8          304400 
         3100.1          258000 
         3100.4          235000 
         3100.7          236600 
           3101          262100 
         3101.3          311200 
         3101.6          382300 
         3101.9          472500 
         3102.2          575300 
         3102.5          681400 
         3102.8          779600 
         3103.1          859800 
         3103.4          914900 
         3103.7          942700 
           3104          944800 
         3104.3          927400 
         3104.6          899700 
         3104.9          872200 
         3105.2          855100 
         3105.5          856900 
         3105.8          881600 
         3106.1          928500 
         3106.4          991800 
         3106.7        1.063e+6 
           3107        1.134e+6 
         3107.3        1.196e+6 
         3107.6        1.245e+6 
         3107.9        1.276e+6 
         3108.2        1.289e+6 
         3108.5        1.284e+6 
         3108.8         1.26e+6 
         3109.1        1.222e+6 
         3109.4        1.176e+6 
         3109.7        1.132e+6 
           3110        1.102e+6 
         3110.3        1.093e+6 
         3110.6        1.111e+6 
         3110.9        1.152e+6 
         3111.2        1.208e+6 
         3111.5        1.264e+6 
         3111.8        1.309e+6 
         3112.1        1.332e+6 
         3112.4        1.329e+6 
         3112.7          1.3e+6 
           3113         1.25e+6 
         3113.3        1.191e+6 
         3113.6        1.132e+6 
         3113.9        1.083e+6 
         3114.2        1.052e+6 
         3114.5        1.041e+6 
         3114.8        1.045e+6 
         3115.1        1.058e+6 
         3115.4         1.07e+6 
         3115.7        1.074e+6 
           3116        1.062e+6 
         3116.3        1.033e+6 
         3116.6          987000 
         3116.9          929500 
         3117.2          866100 
         3117.5          803300 
         3117.8          746600 
         3118.1          700000 
         3118.4          665100 
         3118.7          641600 
           3119          629000 
         3119.3          627400 
         3119.6          636900 
         3119.9          657400 
         3120.2          686800 
         3120.5          719900 
         3120.8          750300 
         3121.1          771700 
         3121.4          781300 
         3121.7          781100 
           3122          777500 
         3122.3          778000 
         3122.6          788600 
         3122.9          811000 
         3123.2          842100 
         3123.5          874800 
         3123.8          899900 
         3124.1          910500 
         3124.4          904500 
         3124.7          886700 
           3125          868000 
         3125.3          860700 
         3125.6          875300 
         3125.9          915500 
         3126.2          977300 
         3126.5        1.049e+6 
         3126.8        1.117e+6 
         3127.1        1.166e+6 
         3127.4        1.187e+6 
         3127.7         1.18e+6 
           3128        1.149e+6 
         3128.3        1.103e+6 
         3128.6        1.052e+6 
         3128.9        1.003e+6 
         3129.2          958600 
         3129.5          918100 
         3129.8          879400 
         3130.1          842400 
         3130.4          809000 
         3130.7          781300 
           3131          761000 
         3131.3          747500 
         3131.6          737900 
         3131.9          728500 
         3132.2          717300 
         3132.5          703400 
         3132.8          688400 
         3133.1          675400 
         3133.4          669100 
         3133.7          675500 
           3134          698600 
         3134.3          739100 
         3134.6          793700 
         3134.9          854500 
         3135.2          911600 
         3135.5          956800 
         3135.8          986500 
         3136.1        1.002e+6 
         3136.4         1.01e+6 
         3136.7        1.017e+6 
           3137        1.026e+6 
         3137.3        1.037e+6 
         3137.6        1.048e+6 
         3137.9        1.056e+6 
         3138.2         1.06e+6 
         3138.5        1.059e+6 
         3138.8        1.057e+6 
         3139.1        1.058e+6 
         3139.4        1.066e+6 
         3139.7        1.084e+6 
           3140        1.114e+6 
         3140.3         1.15e+6 
         3140.6        1.187e+6 
         3140.9        1.215e+6 
         3141.2        1.223e+6 
         3141.5        1.206e+6 
         3141.8        1.159e+6 
         3142.1        1.086e+6 
         3142.4          990800 
         3142.7          881600 
           3143          767000 
         3143.3          655500 
         3143.6          556100 
         3143.9          476400 
         3144.2          422900 
         3144.5          398600 
         3144.8          402600 
         3145.1          430400 
         3145.4          473800 
         3145.7          523600 
           3146          571800 
         3146.3          614000 
         3146.6          650800 
         3146.9          686700 
         3147.2          728100 
         3147.5          779800 
         3147.8          843100 
         3148.1          915900 
         3148.4          991600 
         3148.7        1.063e+6 
           3149        1.126e+6 
         3149.3        1.179e+6 
         3149.6        1.223e+6 
         3149.9         1.26e+6 
         3150.2         1.29e+6 
         3150.5        1.313e+6 
         3150.8        1.325e+6 
         3151.1        1.323e+6 
         3151.4        1.309e+6 
         3151.7        1.289e+6 
           3152        1.269e+6 
         3152.3        1.254e+6 
         3152.6        1.246e+6 
         3152.9        1.242e+6 
         3153.2        1.234e+6 
         3153.5        1.218e+6 
         3153.8         1.19e+6 
         3154.1         1.15e+6 
         3154.4        1.106e+6 
         3154.7        1.062e+6 
           3155        1.023e+6 
         3155.3          989600 
         3155.6          960000 
         3155.9          929100 
         3156.2          891900 
         3156.5          845200 
         3156.8          788600 
         3157.1          725800 
         3157.4          661800 
         3157.7          603900 
           3158          557800 
         3158.3          527000 
         3158.6          512700 
         3158.9          512600 
         3159.2          521600 
         3159.5          533000 
         3159.8          539200 
         3160.1          536200 
         3160.4          523200 
         3160.7          504300 
           3161          486300 
         3161.3          477900 
         3161.6          486100 
         3161.9          514600 
         3162.2          563100 
         3162.5          626200 
         3162.8          695100 
         3163.1          759300 
         3163.4          809200 
         3163.7          838500 
           3164          847000 
         3164.3          839900 
         3164.6          826300 
         3164.9          816000 
         3165.2          816300 
         3165.5          830300 
         3165.8          856400 
         3166.1          889400 
         3166.4          921300 
         3166.7          943600 
           3167          949300 
         3167.3          935200 
         3167.6          904200 
         3167.9          863900 
         3168.2          826500 
         3168.5          805200 
         3168.8          809700 
         3169.1          844000 
         3169.4          905200 
         3169.7          985000 
           3170        1.072e+6 
         3170.3        1.156e+6 
         3170.6         1.23e+6 
         3170.9        1.293e+6 
         3171.2        1.345e+6 
         3171.5        1.388e+6 
         3171.8        1.424e+6 
         3172.1        1.449e+6 
         3172.4        1.459e+6 
         3172.7        1.451e+6 
           3173        1.424e+6 
         3173.3        1.379e+6 
         3173.6        1.325e+6 
         3173.9         1.27e+6 
         3174.2        1.224e+6 
         3174.5        1.197e+6 
         3174.8        1.195e+6 
         3175.1         1.22e+6 
         3175.4        1.267e+6 
         3175.7        1.325e+6 
           3176         1.38e+6 
         3176.3        1.416e+6 
         3176.6        1.422e+6 
         3176.9        1.393e+6 
         3177.2         1.33e+6 
         3177.5        1.243e+6 
         3177.8        1.141e+6 
         3178.1        1.035e+6 
