# Granada HRES Library
# atmosphere = Spectrum  (atmosphere model used)
# feh = -10  (value for [Fe/H] for the model.)
# logg = 4.5 log(cm/s2) (value for Log(G) for the model.)
# teff = 4750 K (value for the effective temperature for the model. Temperatures are given in K)
#
# column 1: WAVELENGTH (ANGSTROM), Wavelength in Angstrom
# column 2: FLUX (ERG/CM2/S/A), Flux in erg/cm2/s/A
         3000.2           58360 
         3000.5           59550 
         3000.8           61230 
         3001.1           63530 
         3001.4           66470 
         3001.7           70510 
           3002           76240 
         3002.3           84480 
         3002.6           96400 
         3002.9          113000 
         3003.2          135000 
         3003.5          162400 
         3003.8          194200 
         3004.1          228400 
         3004.4          261900 
         3004.7          291300 
           3005          313300 
         3005.3          325300 
         3005.6          325600 
         3005.9          314100 
         3006.2          292100 
         3006.5          262500 
         3006.8          229000 
         3007.1          195500 
         3007.4          166000 
         3007.7          143500 
           3008          130300 
         3008.3          127600 
         3008.6          135800 
         3008.9          154300 
         3009.2          181600 
         3009.5          214900 
         3009.8          250000 
         3010.1          282600 
         3010.4          308400 
         3010.7          324600 
           3011          330700 
         3011.3          328600 
         3011.6          321900 
         3011.9          314400 
         3012.2          308800 
         3012.5          306000 
         3012.8          305300 
         3013.1          304900 
         3013.4          302800 
         3013.7          298000 
           3014          290300 
         3014.3          280500 
         3014.6          269400 
         3014.9          257900 
         3015.2          246300 
         3015.5          234400 
         3015.8          221800 
         3016.1          207900 
         3016.4          192500 
         3016.7          175900 
           3017          158700 
         3017.3          141600 
         3017.6          125400 
         3017.9          110700 
         3018.2           97710 
         3018.5           86370 
         3018.8           76630 
         3019.1           68170 
         3019.4           60900 
         3019.7           54890 
           3020           50420 
         3020.3           47800 
         3020.6           47370 
         3020.9           49490 
         3021.2           54170 
         3021.5           61120 
         3021.8           69800 
         3022.1           79390 
         3022.4           89010 
         3022.7           97750 
           3023          104900 
         3023.3          110100 
         3023.6          113100 
         3023.9          114200 
         3024.2          113900 
         3024.5          113200 
         3024.8          113500 
         3025.1          116700 
         3025.4          124900 
         3025.7          140300 
           3026          164200 
         3026.3          196800 
         3026.6          236900 
         3026.9          281900 
         3027.2          327800 
         3027.5          370200 
         3027.8          405000 
         3028.1          429000 
         3028.4          440500 
         3028.7          439400 
           3029          427300 
         3029.3          406800 
         3029.6          381800 
         3029.9          356200 
         3030.2          334000 
         3030.5          318600 
         3030.8          313000 
         3031.1          319000 
         3031.4          337200 
         3031.7          366400 
           3032          404000 
         3032.3          446100 
         3032.6          488200 
         3032.9          526800 
         3033.2          559500 
         3033.5          585100 
         3033.8          603200 
         3034.1          613300 
         3034.4          614400 
         3034.7          604600 
           3035          582100 
         3035.3          546000 
         3035.6          497200 
         3035.9          438600 
         3036.2          375400 
         3036.5          313700 
         3036.8          259500 
         3037.1          218000 
         3037.4          191800 
         3037.7          181600 
           3038          185900 
         3038.3          200900 
         3038.6          222300 
         3038.9          245000 
         3039.2          264900 
         3039.5          279000 
         3039.8          285700 
         3040.1          285100 
         3040.4          278600 
         3040.7          268600 
           3041          257900 
         3041.3          249600 
         3041.6          246600 
         3041.9          251300 
         3042.2          264600 
         3042.5          286200 
         3042.8          313900 
         3043.1          344200 
         3043.4          373200 
         3043.7          397300 
           3044          413800 
         3044.3          421200 
         3044.6          419300 
         3044.9          408100 
         3045.2          388400 
         3045.5          361600 
         3045.8          329000 
         3046.1          293000 
         3046.4          256400 
         3046.7          222700 
           3047          195500 
         3047.3          177700 
         3047.6          171100 
         3047.9          175900 
         3048.2          190300 
         3048.5          211000 
         3048.8          234000 
         3049.1          255500 
         3049.4          273100 
         3049.7          287100 
           3050          299800 
         3050.3          315300 
         3050.6          337400 
         3050.9          368300 
         3051.2          406600 
         3051.5          447500 
         3051.8          483900 
         3052.1          508400 
         3052.4          515600 
         3052.7          503700 
           3053          475400 
         3053.3          437100 
         3053.6          396600 
         3053.9          361200 
         3054.2          335900 
         3054.5          322000 
         3054.8          317600 
         3055.1          318000 
         3055.4          318100 
         3055.7          312800 
           3056          299300 
         3056.3          277000 
         3056.6          247700 
         3056.9          214900 
         3057.2          182500 
         3057.5          154100 
         3057.8          132400 
         3058.1          119200 
         3058.4          115300 
         3058.7          121500 
           3059          138000 
         3059.3          164800 
         3059.6          201500 
         3059.9          247100 
         3060.2          299400 
         3060.5          355300 
         3060.8          410700 
         3061.1          461200 
         3061.4          502000 
         3061.7          529000 
           3062          539000 
         3062.3          530600 
         3062.6          504700 
         3062.9          464900 
         3063.2          416600 
         3063.5          367000 
         3063.8          322400 
         3064.1          287800 
         3064.4          264800 
         3064.7          252100 
           3065          245700 
         3065.3          240900 
         3065.6          233400 
         3065.9          221300 
         3066.2          205300 
         3066.5          188000 
         3066.8          173400 
         3067.1          165800 
         3067.4          167600 
         3067.7          180400 
           3068          203500 
         3068.3          234800 
         3068.6          271800 
         3068.9          311900 
         3069.2          352900 
         3069.5          393700 
         3069.8          433600 
         3070.1          472100 
         3070.4          508000 
         3070.7          539500 
           3071          564400 
         3071.3          580800 
         3071.6          588200 
         3071.9          588000 
         3072.2          582900 
         3072.5          576000 
         3072.8          569300 
         3073.1          562900 
         3073.4          555100 
         3073.7          543500 
           3074          526300 
         3074.3          503300 
         3074.6          477300 
         3074.9          452800 
         3075.2          435600 
         3075.5          429700 
         3075.8          437500 
         3076.1          457300 
         3076.4          484500 
         3076.7          513000 
           3077          536900 
         3077.3          552000 
         3077.6          557500 
         3077.9          555100 
         3078.2          547700 
         3078.5          538300 
         3078.8          528100 
         3079.1          516800 
         3079.4          502200 
         3079.7          482100 
           3080          455000 
         3080.3          421800 
         3080.6          384700 
         3080.9          347400 
         3081.2          314000 
         3081.5          287600 
         3081.8          270700 
         3082.1          264200 
         3082.4          267300 
         3082.7          279500 
           3083          300000 
         3083.3          328800 
         3083.6          365700 
         3083.9          410300 
         3084.2          461000 
         3084.5          514300 
         3084.8          565000 
         3085.1          606900 
         3085.4          634000 
         3085.7          641900 
           3086          629700 
         3086.3          600300 
         3086.6          559400 
         3086.9          515100 
         3087.2          474800 
         3087.5          444000 
         3087.8          424400 
         3088.1          414600 
         3088.4          410400 
         3088.7          406600 
           3089          398900 
         3089.3          384700 
         3089.6          363200 
         3089.9          336000 
         3090.2          305700 
         3090.5          274700 
         3090.8          245100 
         3091.1          219000 
         3091.4          197600 
         3091.7          182000 
           3092          173100 
         3092.3          171400 
         3092.6          177200 
         3092.9          190400 
         3093.2          210100 
         3093.5          234200 
         3093.8          260200 
         3094.1          285000 
         3094.4          305700 
         3094.7          319800 
           3095          326200 
         3095.3          324400 
         3095.6          315700 
         3095.9          302200 
         3096.2          287000 
         3096.5          272800 
         3096.8          261600 
         3097.1          253900 
         3097.4          248400 
         3097.7          242700 
           3098          234500 
         3098.3          221800 
         3098.6          204500 
         3098.9          183500 
         3099.2          161100 
         3099.5          139600 
         3099.8          121800 
         3100.1          109800 
         3100.4          105400 
         3100.7          110000 
           3101          125200 
         3101.3          151800 
         3101.6          190300 
         3101.9          239600 
         3102.2          297600 
         3102.5          360200 
         3102.8          422200 
         3103.1          478000 
         3103.4          522700 
         3103.7          552300 
           3104          564900 
         3104.3          561500 
         3104.6          544800 
         3104.9          519600 
         3105.2          492700 
         3105.5          470600 
         3105.8          459000 
         3106.1          461300 
         3106.4          478000 
         3106.7          507100 
           3107          544600 
         3107.3          585800 
         3107.6          625200 
         3107.9          658300 
         3108.2          681500 
         3108.5          693600 
         3108.8          695300 
         3109.1          689700 
         3109.4          681400 
         3109.7          676000 
           3110          677900 
         3110.3          689200 
         3110.6          709000 
         3110.9          733600 
         3111.2          757800 
         3111.5          776300 
         3111.8          784400 
         3112.1          779700 
         3112.4          762400 
         3112.7          734800 
           3113          701500 
         3113.3          668700 
         3113.6          643200 
         3113.9          630900 
         3114.2          635100 
         3114.5          655200 
         3114.8          685800 
         3115.1          717900 
         3115.4          741900 
         3115.7          749200 
           3116          735300 
         3116.3          701400 
         3116.6          653200 
         3116.9          599500 
         3117.2          549000 
         3117.5          507900 
         3117.8          479300 
         3118.1          463200 
         3118.4          457300 
         3118.7          458500 
           3119          464300 
         3119.3          472400 
         3119.6          482000 
         3119.9          491600 
         3120.2          499000 
         3120.5          501700 
         3120.8          497200 
         3121.1          483900 
         3121.4          463000 
         3121.7          438200 
           3122          414500 
         3122.3          397100 
         3122.6          389500 
         3122.9          392800 
         3123.2          405100 
         3123.5          422400 
         3123.8          439600 
         3124.1          452000 
         3124.4          456700 
         3124.7          453300 
           3125          443400 
         3125.3          430400 
         3125.6          417200 
         3125.9          406300 
         3126.2          398000 
         3126.5          391700 
         3126.8          385900 
         3127.1          379800 
         3127.4          373600 
         3127.7          368200 
           3128          366000 
         3128.3          368600 
         3128.6          377200 
         3128.9          391300 
         3129.2          409300 
         3129.5          428900 
         3129.8          448200 
         3130.1          465700 
         3130.4          480700 
         3130.7          492200 
           3131          498900 
         3131.3          499500 
         3131.6          492900 
         3131.9          478700 
         3132.2          458200 
         3132.5          433900 
         3132.8          410000 
         3133.1          391200 
         3133.4          382600 
         3133.7          388000 
           3134          409100 
         3134.3          444700 
         3134.6          490300 
         3134.9          538900 
         3135.2          583100 
         3135.5          616900 
         3135.8          637200 
         3136.1          644600 
         3136.4          642000 
         3136.7          633000 
           3137          620600 
         3137.3          606900 
         3137.6          592400 
         3137.9          578100 
         3138.2          565200 
         3138.5          555400 
         3138.8          550400 
         3139.1          551000 
         3139.4          557100 
         3139.7          567600 
           3140          580500 
         3140.3          593300 
         3140.6          603600 
         3140.9          608500 
         3141.2          605600 
         3141.5          592900 
         3141.8          569300 
         3142.1          534700 
         3142.4          490600 
         3142.7          439800 
           3143          386900 
         3143.3          336700 
         3143.6          294100 
         3143.9          263300 
         3144.2          246200 
         3144.5          243500 
         3144.8          253400 
         3145.1          272200 
         3145.4          296100 
         3145.7          320500 
           3146          342600 
         3146.3          361100 
         3146.6          377500 
         3146.9          394900 
         3147.2          416300 
         3147.5          444200 
         3147.8          478900 
         3148.1          517700 
         3148.4          556400 
         3148.7          590600 
           3149          616600 
         3149.3          633100 
         3149.6          641000 
         3149.9          642500 
         3150.2          639600 
         3150.5          633200 
         3150.8          623300 
         3151.1          609900 
         3151.4          593400 
         3151.7          576200 
           3152          562000 
         3152.3          554600 
         3152.6          556100 
         3152.9          566400 
         3153.2          582900 
         3153.5          601900 
         3153.8          619000 
         3154.1          631400 
         3154.4          637200 
         3154.7          635700 
           3155          626500 
         3155.3          608800 
         3155.6          581700 
         3155.9          545700 
         3156.2          502000 
         3156.5          453900 
         3156.8          405600 
         3157.1          361800 
         3157.4          326400 
         3157.7          301500 
           3158          287400 
         3158.3          283000 
         3158.6          285300 
         3158.9          290800 
         3159.2          297000 
         3159.5          300900 
         3159.8          302100 
         3160.1          300600 
         3160.4          298800 
         3160.7          299200 
           3161          304900 
         3161.3          318000 
         3161.6          339100 
         3161.9          366800 
         3162.2          397700 
         3162.5          427700 
         3162.8          452200 
         3163.1          467700 
         3163.4          472300 
         3163.7          466800 
           3164          454400 
         3164.3          439600 
         3164.6          427000 
         3164.9          420500 
         3165.2          422200 
         3165.5          432100 
         3165.8          448600 
         3166.1          469000 
         3166.4          490000 
         3166.7          507700 
           3167          519000 
         3167.3          521700 
         3167.6          514800 
         3167.9          500100 
         3168.2          481500 
         3168.5          464500 
         3168.8          455400 
         3169.1          458600 
         3169.4          475900 
         3169.7          506000 
           3170          544700 
         3170.3          586500 
         3170.6          625800 
         3170.9          659100 
         3171.2          684800 
         3171.5          702300 
         3171.8          711900 
         3172.1          713400 
         3172.4          706400 
         3172.7          690900 
           3173          667700 
         3173.3          639300 
         3173.6          609200 
         3173.9          582100 
         3174.2          562900 
         3174.5          556100 
         3174.8          564300 
         3175.1          588100 
         3175.4          624500 
         3175.7          667500 
           3176          709000 
         3176.3          740900 
         3176.6          757000 
         3176.9          754900 
         3177.2          736500 
         3177.5          705600 
         3177.8          667600 
         3178.1          626200 
