# Granada HRES Library
# atmosphere = Phoenix  (atmosphere model used)
# feh = 3  (value for [Fe/H] for the model.)
# logg = 4 log(cm/s2) (value for Log(G) for the model.)
# teff = 3000 K (value for the effective temperature for the model. Temperatures are given in K)
#
# column 1: WAVELENGTH (ANGSTROM), Wavelength in Angstrom
# column 2: FLUX (ERG/CM2/S/A), Flux in erg/cm2/s/A
         3000.2           62.35 
         3000.5           54.32 
         3000.8           49.12 
         3001.1           46.56 
         3001.4           45.75 
         3001.7           45.62 
           3002           45.57 
         3002.3           46.06 
         3002.6           48.54 
         3002.9           54.98 
         3003.2           66.96 
         3003.5           85.06 
         3003.8           108.4 
         3004.1           134.5 
         3004.4           160.3 
         3004.7           182.1 
           3005           196.8 
         3005.3           202.4 
         3005.6           198.3 
         3005.9           185.1 
         3006.2           165.1 
         3006.5           141.8 
         3006.8           118.7 
         3007.1           99.13 
         3007.4            85.3 
         3007.7           78.43 
           3008            78.8 
         3008.3           86.18 
         3008.6           100.2 
         3008.9             121 
         3009.2           148.1 
         3009.5           180.2 
         3009.8           214.5 
         3010.1           245.4 
         3010.4           267.8 
         3010.7           277.8 
           3011           275.7 
         3011.3           265.3 
         3011.6           252.6 
         3011.9           242.5 
         3012.2           237.6 
         3012.5           237.3 
         3012.8           239.5 
         3013.1           241.5 
         3013.4           242.1 
         3013.7           240.5 
           3014           236.8 
         3014.3           231.3 
         3014.6           224.5 
         3014.9           217.4 
         3015.2           210.6 
         3015.5           204.4 
         3015.8           198.4 
         3016.1           192.1 
         3016.4           184.7 
         3016.7           175.4 
           3017           164.2 
         3017.3           151.9 
         3017.6           139.4 
         3017.9           127.6 
         3018.2           116.3 
         3018.5           104.9 
         3018.8           92.33 
         3019.1           78.79 
         3019.4           64.85 
         3019.7           51.55 
           3020           40.16 
         3020.3           31.94 
         3020.6           28.05 
         3020.9           29.39 
         3021.2           36.26 
         3021.5           48.19 
         3021.8           63.76 
         3022.1           80.72 
         3022.4           96.33 
         3022.7             108 
           3023           113.7 
         3023.3           113.3 
         3023.6             108 
         3023.9           100.4 
         3024.2           92.68 
         3024.5           86.46 
         3024.8           81.92 
         3025.1            78.9 
         3025.4           77.78 
         3025.7           79.64 
           3026           85.65 
         3026.3           95.91 
         3026.6             109 
         3026.9           122.5 
         3027.2           134.4 
         3027.5           144.5 
         3027.8           154.2 
         3028.1           166.4 
         3028.4             183 
         3028.7           203.9 
           3029           226.5 
         3029.3             247 
         3029.6           261.4 
         3029.9           267.6 
         3030.2           266.2 
         3030.5           260.6 
         3030.8           255.9 
         3031.1             257 
         3031.4           266.7 
         3031.7           283.8 
           3032           303.1 
         3032.3             317 
         3032.6           318.7 
         3032.9           305.8 
         3033.2           281.3 
         3033.5           252.2 
         3033.8           226.9 
         3034.1             212 
         3034.4           209.6 
         3034.7           216.8 
           3035           227.1 
         3035.3           233.3 
         3035.6           230.1 
         3035.9           215.8 
         3036.2           192.3 
         3036.5           164.5 
         3036.8           138.1 
         3037.1             119 
         3037.4           111.5 
         3037.7             117 
           3038             134 
         3038.3           158.7 
         3038.6           186.2 
         3038.9           211.9 
         3039.2           232.8 
         3039.5           246.7 
         3039.8           252.6 
         3040.1           250.5 
         3040.4           241.5 
         3040.7           228.2 
           3041           214.5 
         3041.3           204.8 
         3041.6           202.6 
         3041.9           209.8 
         3042.2           225.2 
         3042.5           244.9 
         3042.8           263.5 
         3043.1           276.6 
         3043.4           282.4 
         3043.7             282 
           3044           278.5 
         3044.3           274.7 
         3044.6           272.4 
         3044.9           271.5 
         3045.2           270.3 
         3045.5           265.8 
         3045.8           254.9 
         3046.1           235.7 
         3046.4           208.5 
         3046.7           176.4 
           3047           144.4 
         3047.3           118.1 
         3047.6           101.9 
         3047.9           98.39 
         3048.2           107.6 
         3048.5           127.4 
         3048.8           153.1 
         3049.1           178.7 
         3049.4           197.9 
         3049.7           206.3 
           3050           203.6 
         3050.3           193.5 
         3050.6           182.4 
         3050.9           175.8 
         3051.2             177 
         3051.5           185.6 
         3051.8           198.7 
         3052.1           212.1 
         3052.4           221.2 
         3052.7           222.9 
           3053           216.3 
         3053.3           203.4 
         3053.6           188.2 
         3053.9           175.7 
         3054.2           169.3 
         3054.5           170.1 
         3054.8           176.2 
         3055.1           183.9 
         3055.4           189.1 
         3055.7           189.1 
           3056           183.3 
         3056.3           172.7 
         3056.6           159.5 
         3056.9           145.9 
         3057.2           133.3 
         3057.5           122.7 
         3057.8           113.8 
         3058.1           106.6 
         3058.4           101.3 
         3058.7           99.56 
           3059           103.8 
         3059.3             116 
         3059.6             137 
         3059.9           165.2 
         3060.2           197.6 
         3060.5           230.2 
         3060.8           259.1 
         3061.1           281.5 
         3061.4           295.9 
         3061.7           301.3 
           3062           296.6 
         3062.3           280.9 
         3062.6           253.8 
         3062.9           217.4 
         3063.2           176.4 
         3063.5           137.1 
         3063.8           105.3 
         3064.1           84.53 
         3064.4           74.74 
         3064.7           73.32 
           3065           76.46 
         3065.3           80.85 
         3065.6           84.67 
         3065.9           87.66 
         3066.2           90.44 
         3066.5           93.54 
         3066.8           96.95 
         3067.1           100.4 
         3067.4           103.8 
         3067.7           107.7 
           3068           112.7 
         3068.3           118.7 
         3068.6           124.7 
         3068.9           128.9 
         3069.2           130.3 
         3069.5             129 
         3069.8           127.5 
         3070.1           129.1 
         3070.4           137.1 
         3070.7           152.8 
           3071           175.4 
         3071.3           202.9 
         3071.6           232.9 
         3071.9           263.7 
         3072.2             294 
         3072.5           321.2 
         3072.8           341.8 
         3073.1             353 
         3073.4             354 
         3073.7           347.2 
           3074           336.3 
         3074.3           324.5 
         3074.6           313.9 
         3074.9           306.5 
         3075.2           304.8 
         3075.5           311.6 
         3075.8           327.6 
         3076.1           350.1 
         3076.4             373 
         3076.7           389.5 
           3077           394.9 
         3077.3           389.1 
         3077.6             375 
         3077.9           357.3 
         3078.2           339.6 
         3078.5           323.4 
         3078.8           307.2 
         3079.1           288.5 
         3079.4           265.4 
         3079.7           237.8 
           3080           207.3 
         3080.3           176.3 
         3080.6           146.8 
         3080.9           120.4 
         3081.2           98.25 
         3081.5           81.35 
         3081.8           70.39 
         3082.1           65.42 
         3082.4           65.68 
         3082.7           69.91 
           3083           77.15 
         3083.3           87.06 
         3083.6           99.79 
         3083.9           115.3 
         3084.2           132.9 
         3084.5           151.6 
         3084.8           170.6 
         3085.1           188.9 
         3085.4           205.2 
         3085.7           218.4 
           3086           227.8 
         3086.3           235.2 
         3086.6           244.4 
         3086.9           259.7 
         3087.2           283.6 
         3087.5           314.5 
         3087.8           346.4 
         3088.1           370.4 
         3088.4           377.8 
         3088.7             364 
           3089           329.9 
         3089.3           282.1 
         3089.6           229.8 
         3089.9           181.6 
         3090.2           142.7 
         3090.5           114.6 
         3090.8           95.49 
         3091.1           82.48 
         3091.4           72.78 
         3091.7           64.74 
           3092           58.15 
         3092.3           54.06 
         3092.6           54.09 
         3092.9           59.61 
         3093.2           70.81 
         3093.5           86.39 
         3093.8           103.8 
         3094.1           120.2 
         3094.4           133.1 
         3094.7           140.8 
           3095             143 
         3095.3           140.8 
         3095.6             137 
         3095.9           136.1 
         3096.2           142.8 
         3096.5           160.9 
         3096.8             190 
         3097.1             225 
         3097.4           256.7 
         3097.7           275.1 
           3098           273.7 
         3098.3           252.2 
         3098.6           216.7 
         3098.9           176.8 
         3099.2             142 
         3099.5           118.8 
         3099.8           108.8 
         3100.1           109.4 
         3100.4           115.6 
         3100.7           122.4 
           3101           127.1 
         3101.3           136.8 
         3101.6           150.1 
         3101.9           173.4 
         3102.2           206.6 
         3102.5           246.9 
         3102.8           289.4 
         3103.1           329.1 
         3103.4           361.3 
         3103.7           381.7 
           3104           387.1 
         3104.3           375.7 
         3104.6           348.3 
         3104.9           309.1 
         3105.2           265.5 
         3105.5           225.7 
         3105.8           196.1 
         3106.1           180.3 
         3106.4           178.1 
         3106.7           187.3 
           3107           204.3 
         3107.3           224.7 
         3107.6           243.1 
         3107.9           255.4 
         3108.2           260.1 
         3108.5           260.4 
         3108.8           263.4 
         3109.1           277.3 
         3109.4           307.6 
         3109.7           353.2 
           3110           407.4 
         3110.3           458.7 
         3110.6           494.8 
         3110.9           507.3 
         3111.2           494.1 
         3111.5             460 
         3111.8           414.3 
         3112.1           367.9 
         3112.4           329.4 
         3112.7           304.7 
           3113           297.1 
         3113.3           308.2 
         3113.6           338.7 
         3113.9           388.1 
         3114.2             453 
         3114.5           526.4 
         3114.8           596.9 
         3115.1           650.8 
         3115.4           675.2 
         3115.7           663.1 
           3116             617 
         3116.3             550 
         3116.6           482.6 
         3116.9             436 
         3117.2           425.4 
         3117.5           453.8 
         3117.8           512.2 
         3118.1           582.8 
         3118.4           646.9 
         3118.7           690.9 
           3119           711.6 
         3119.3           714.8 
         3119.6           710.7 
         3119.9           706.1 
         3120.2           699.8 
         3120.5           682.2 
         3120.8           642.3 
         3121.1           575.4 
         3121.4           488.7 
         3121.7           399.3 
           3122           327.2 
         3122.3           285.8 
         3122.6           277.4 
         3122.9           294.3 
         3123.2           323.1 
         3123.5           352.1 
         3123.8           374.7 
         3124.1           390.7 
         3124.4           404.2 
         3124.7           419.9 
           3125           438.9 
         3125.3           459.5 
         3125.6             478 
         3125.9           492.1 
         3126.2             502 
         3126.5           507.3 
         3126.8           505.4 
         3127.1           492.1 
         3127.4           465.4 
         3127.7           427.9 
           3128           386.2 
         3128.3           348.2 
         3128.6             320 
         3128.9           305.1 
         3129.2           304.8 
         3129.5           319.7 
         3129.8           350.1 
         3130.1             395 
         3130.4           452.1 
         3130.7           516.5 
           3131           578.7 
         3131.3           626.4 
         3131.6             647 
         3131.9           633.9 
         3132.2           589.3 
         3132.5           524.7 
         3132.8           455.8 
         3133.1           396.6 
         3133.4             357 
         3133.7           342.3 
           3134             353 
         3134.3           383.6 
         3134.6             422 
         3134.9           452.9 
         3135.2           464.1 
         3135.5           452.8 
         3135.8           426.6 
         3136.1           400.4 
         3136.4           389.1 
         3136.7           403.5 
           3137           446.1 
         3137.3             511 
         3137.6           584.7 
         3137.9           650.6 
         3138.2           694.1 
         3138.5           708.3 
         3138.8           695.9 
         3139.1           667.4 
         3139.4           635.1 
         3139.7           610.4 
           3140           599.6 
         3140.3           603.2 
         3140.6           616.2 
         3140.9           630.7 
         3141.2           639.9 
         3141.5           641.4 
         3141.8           636.2 
         3142.1           625.7 
         3142.4           608.8 
         3142.7           584.8 
           3143           555.7 
         3143.3           528.4 
         3143.6           509.6 
         3143.9           501.7 
         3144.2           500.3 
         3144.5           497.6 
         3144.8           487.7 
         3145.1           468.7 
         3145.4           442.7 
         3145.7           412.4 
           3146           382.1 
         3146.3           358.3 
         3146.6           351.1 
         3146.9             371 
         3147.2           425.7 
         3147.5             514 
         3147.8           624.2 
         3148.1           734.9 
         3148.4           820.2 
         3148.7           858.6 
           3149           841.2 
         3149.3           775.5 
         3149.6             682 
         3149.9           584.5 
         3150.2           501.7 
         3150.5           442.2 
         3150.8           406.5 
         3151.1           390.6 
         3151.4           391.1 
         3151.7           405.5 
           3152           431.9 
         3152.3           466.3 
         3152.6             502 
         3152.9             531 
         3153.2           548.7 
         3153.5           556.5 
         3153.8           562.9 
         3154.1           577.8 
         3154.4           605.8 
         3154.7           641.9 
           3155           674.5 
         3155.3           693.7 
         3155.6           697.7 
         3155.9           695.3 
         3156.2             699 
         3156.5           718.9 
         3156.8           757.5 
         3157.1           809.4 
         3157.4           865.8 
         3157.7           918.7 
           3158           964.5 
         3158.3            1002 
         3158.6            1032 
         3158.9            1048 
         3159.2            1043 
         3159.5            1013 
         3159.8           965.9 
         3160.1           920.2 
         3160.4           898.8 
         3160.7           914.5 
           3161           961.7 
         3161.3            1020 
         3161.6            1070 
         3161.9            1098 
         3162.2            1109 
         3162.5            1110 
         3162.8            1105 
         3163.1            1095 
         3163.4            1079 
         3163.7            1061 
           3164            1048 
         3164.3            1047 
         3164.6            1058 
         3164.9            1082 
         3165.2            1120 
         3165.5            1180 
         3165.8            1273 
         3166.1            1411 
         3166.4            1591 
         3166.7            1796 
           3167            1989 
         3167.3            2127 
         3167.6            2172 
         3167.9            2119 
         3168.2            1989 
         3168.5            1835 
         3168.8            1711 
         3169.1            1650 
         3169.4            1645 
         3169.7            1663 
           3170            1665 
         3170.3            1629 
         3170.6            1562 
         3170.9            1487 
         3171.2            1434 
         3171.5            1416 
         3171.8            1425 
         3172.1            1440 
         3172.4            1440 
         3172.7            1421 
           3173            1400 
         3173.3            1404 
         3173.6            1454 
         3173.9            1556 
         3174.2            1694 
         3174.5            1843 
         3174.8            1975 
         3175.1            2072 
         3175.4            2122 
         3175.7            2118 
           3176            2060 
         3176.3            1958 
         3176.6            1829 
         3176.9            1703 
         3177.2            1612 
         3177.5            1578 
         3177.8            1611 
         3178.1            1688 
