# Granada HRES Library
# atmosphere = Phoenix  (atmosphere model used)
# feh = -5  (value for [Fe/H] for the model.)
# logg = 4 log(cm/s2) (value for Log(G) for the model.)
# teff = 4500 K (value for the effective temperature for the model. Temperatures are given in K)
#
# column 1: WAVELENGTH (ANGSTROM), Wavelength in Angstrom
# column 2: FLUX (ERG/CM2/S/A), Flux in erg/cm2/s/A
         3000.2           16600 
         3000.5           15730 
         3000.8           15060 
         3001.1           14600 
         3001.4           14250 
         3001.7           13840 
           3002           13360 
         3002.3           12970 
         3002.6           13040 
         3002.9           14020 
         3003.2           16170 
         3003.5           19490 
         3003.8           23660 
         3004.1           28230 
         3004.4           32650 
         3004.7           36480 
           3005           39440 
         3005.3           41230 
         3005.6           41670 
         3005.9           40590 
         3006.2           38020 
         3006.5           34290 
         3006.8           29990 
         3007.1           25800 
         3007.4           22380 
         3007.7           20160 
           3008           19260 
         3008.3           19600 
         3008.6           20950 
         3008.9           23100 
         3009.2           25870 
         3009.5           29070 
         3009.8           32390 
         3010.1           35290 
         3010.4           37240 
         3010.7           37860 
           3011           37260 
         3011.3           36030 
         3011.6           35000 
         3011.9           34830 
         3012.2           35680 
         3012.5           37180 
         3012.8           38610 
         3013.1           39360 
         3013.4           39110 
         3013.7           37940 
           3014           36180 
         3014.3           34250 
         3014.6           32500 
         3014.9           31090 
         3015.2           30090 
         3015.5           29470 
         3015.8           29160 
         3016.1           29060 
         3016.4           29040 
         3016.7           28870 
           3017           28390 
         3017.3           27570 
         3017.6           26470 
         3017.9           25220 
         3018.2           23870 
         3018.5           22370 
         3018.8           20690 
         3019.1           18780 
         3019.4           16660 
         3019.7           14470 
           3020           12420 
         3020.3           10790 
         3020.6            9943 
         3020.9           10130 
         3021.2           11440 
         3021.5           13690 
         3021.8           16540 
         3022.1           19480 
         3022.4           21980 
         3022.7           23610 
           3023           24190 
         3023.3           23790 
         3023.6           22780 
         3023.9           21600 
         3024.2           20650 
         3024.5           20030 
         3024.8           19630 
         3025.1           19310 
         3025.4           19130 
         3025.7           19420 
           3026           20610 
         3026.3           23010 
         3026.6           26560 
         3026.9           30940 
         3027.2           35680 
         3027.5           40310 
         3027.8           44500 
         3028.1           47960 
         3028.4           50360 
         3028.7           51430 
           3029           50990 
         3029.3           49130 
         3029.6           46200 
         3029.9           42730 
         3030.2           39380 
         3030.5           36850 
         3030.8           35930 
         3031.1           37370 
         3031.4           41550 
         3031.7           48170 
           3032           56080 
         3032.3           63440 
         3032.6           68390 
         3032.9           69770 
         3033.2           67530 
         3033.5           62750 
         3033.8           57100 
         3034.1           52180 
         3034.4           48910 
         3034.7           47260 
           3035           46390 
         3035.3           45280 
         3035.6           43160 
         3035.9           39790 
         3036.2           35480 
         3036.5           30850 
         3036.8           26660 
         3037.1           23530 
         3037.4           21900 
         3037.7           21870 
           3038           23230 
         3038.3           25510 
         3038.6           28180 
         3038.9           30780 
         3039.2           32950 
         3039.5           34410 
         3039.8           34940 
         3040.1           34460 
         3040.4           33060 
         3040.7           31010 
           3041           28750 
         3041.3           26770 
         3041.6           25600 
         3041.9           25690 
         3042.2           27270 
         3042.5           30220 
         3042.8           34120 
         3043.1           38400 
         3043.4           42470 
         3043.7           45820 
           3044           48100 
         3044.3           49130 
         3044.6           48970 
         3044.9           47840 
         3045.2           46040 
         3045.5           43770 
         3045.8           41050 
         3046.1           37790 
         3046.4           34020 
         3046.7           29970 
           3047           26180 
         3047.3           23270 
         3047.6           21750 
         3047.9           21830 
         3048.2           23450 
         3048.5           26230 
         3048.8           29560 
         3049.1           32720 
         3049.4           35030 
         3049.7           36080 
           3050           35990 
         3050.3           35390 
         3050.6           35160 
         3050.9           36070 
         3051.2           38410 
         3051.5           41900 
         3051.8           45710 
         3052.1           48760 
         3052.4           50120 
         3052.7           49270 
           3053           46350 
         3053.3           42090 
         3053.6           37580 
         3053.9           33850 
         3054.2           31620 
         3054.5           31190 
         3054.8           32320 
         3055.1           34410 
         3055.4           36610 
         3055.7           38060 
           3056           38150 
         3056.3           36710 
         3056.6           34000 
         3056.9           30640 
         3057.2           27270 
         3057.5           24420 
         3057.8           22280 
         3058.1           20830 
         3058.4           19990 
         3058.7           19830 
           3059           20620 
         3059.3           22660 
         3059.6           26100 
         3059.9           30800 
         3060.2           36340 
         3060.5           42150 
         3060.8           47730 
         3061.1           52840 
         3061.4           57400 
         3061.7           61300 
           3062           64110 
         3062.3           65020 
         3062.6           63180 
         3062.9           58300 
         3063.2           50990 
         3063.5           42750 
         3063.8           35320 
         3064.1           30080 
         3064.4           27520 
         3064.7           27220 
           3065           28170 
         3065.3           29190 
         3065.6           29420 
         3065.9           28560 
         3066.2           26910 
         3066.5           25070 
         3066.8           23710 
         3067.1           23310 
         3067.4           24110 
         3067.7           26140 
           3068           29210 
         3068.3           32940 
         3068.6           36750 
         3068.9           40060 
         3069.2           42530 
         3069.5           44420 
         3069.8           46650 
         3070.1           50460 
         3070.4           56760 
         3070.7           65420 
           3071           75100 
         3071.3           83730 
         3071.6           89560 
         3071.9           92010 
         3072.2           91710 
         3072.5           89840 
         3072.8           87300 
         3073.1           84420 
         3073.4           81150 
         3073.7           77430 
           3074           73370 
         3074.3           69210 
         3074.6           65260 
         3074.9           62090 
         3075.2           60580 
         3075.5           61690 
         3075.8           65850 
         3076.1           72490 
         3076.4           79910 
         3076.7           86030 
           3077           89120 
         3077.3           88610 
         3077.6           85230 
         3077.9           80540 
         3078.2           76210 
         3078.5           73270 
         3078.8           71670 
         3079.1           70420 
         3079.4           68300 
         3079.7           64470 
           3080           58830 
         3080.3           51940 
         3080.6           44690 
         3080.9           38010 
         3081.2           32620 
         3081.5           28970 
         3081.8           27170 
         3082.1           27020 
         3082.4           28130 
         3082.7           30100 
           3083           32750 
         3083.3           36160 
         3083.6           40530 
         3083.9           45900 
         3084.2           52010 
         3084.5           58390 
         3084.8           64540 
         3085.1           69860 
         3085.4           73660 
         3085.7           75190 
           3086           74160 
         3086.3           71100 
         3086.6           67470 
         3086.9           65100 
         3087.2           65390 
         3087.5           68710 
         3087.8           74090 
         3088.1           79440 
         3088.4           82350 
         3088.7           81000 
           3089           75040 
         3089.3           65750 
         3089.6           55360 
         3089.9           45920 
         3090.2           38560 
         3090.5           33290 
         3090.8           29490 
         3091.1           26480 
         3091.4           23790 
         3091.7           21330 
           3092           19310 
         3092.3           18140 
         3092.6           18240 
         3092.9           19880 
         3093.2           22960 
         3093.5           27020 
         3093.8           31330 
         3094.1           35130 
         3094.4           37850 
         3094.7           39170 
           3095           39040 
         3095.3           37670 
         3095.6           35480 
         3095.9           33160 
         3096.2           31510 
         3096.5           31270 
         3096.8           32800 
         3097.1           35860 
         3097.4           39510 
         3097.7           42410 
           3098           43380 
         3098.3           41850 
         3098.6           38130 
         3098.9           33180 
         3099.2           28200 
         3099.5           24210 
         3099.8           21750 
         3100.1           20830 
         3100.4           21060 
         3100.7           21930 
           3101           23080 
         3101.3           26720 
         3101.6           30150 
         3101.9           35180 
         3102.2           41800 
         3102.5           49630 
         3102.8           58100 
         3103.1           66620 
         3103.4           74530 
         3103.7           80960 
           3104           84790 
         3104.3           84940 
         3104.6           81030 
         3104.9           73810 
         3105.2           65130 
         3105.5           57270 
         3105.8           52010 
         3106.1           50150 
         3106.4           51340 
         3106.7           54510 
           3107           58340 
         3107.3           61670 
         3107.6           63750 
         3107.9           64390 
         3108.2           64010 
         3108.5           63660 
         3108.8           64700 
         3109.1           68360 
         3109.4           75310 
         3109.7           85360 
           3110           97520 
         3110.3          110300 
         3110.6          122400 
         3110.9          132600 
         3111.2          140300 
         3111.5          145400 
         3111.8          147600 
         3112.1          146600 
         3112.4          142100 
         3112.7          135300 
           3113          128800 
         3113.3          126900 
         3113.6          133400 
         3113.9          150300 
         3114.2          175900 
         3114.5          204900 
         3114.8          230000 
         3115.1          243500 
         3115.4          241100 
         3115.7          222600 
           3116          192000 
         3116.3          156200 
         3116.6          122400 
         3116.9           96080 
         3117.2           79500 
         3117.5           72170 
         3117.8           71520 
         3118.1           74300 
         3118.4           77780 
         3118.7           80630 
           3119           83170 
         3119.3           86820 
         3119.6           93020 
         3119.9          101800 
         3120.2          110900 
         3120.5          116800 
         3120.8          116100 
         3121.1          107900 
         3121.4           94120 
         3121.7           78970 
           3122           66740 
         3122.3           60580 
         3122.6           61630 
         3122.9           69110 
         3123.2           80690 
         3123.5           93180 
         3123.8          103300 
         3124.1          108900 
         3124.4          109600 
         3124.7          107100 
           3125          104800 
         3125.3          106100 
         3125.6          113300 
         3125.9          126500 
         3126.2          143500 
         3126.5          159000 
         3126.8          167400 
         3127.1          164600 
         3127.4          150400 
         3127.7          128800 
           3128          106100 
         3128.3           87710 
         3128.6           76470 
         3128.9           71960 
         3129.2           71730 
         3129.5           72930 
         3129.8           73650 
         3130.1           73390 
         3130.4           72680 
         3130.7           72230 
           3131           72340 
         3131.3           72630 
         3131.6           72280 
         3131.9           70510 
         3132.2           67010 
         3132.5           62120 
         3132.8           56800 
         3133.1           52510 
         3133.4           50940 
         3133.7           53550 
           3134           60940 
         3134.3           72170 
         3134.6           84740 
         3134.9           95320 
         3135.2          101200 
         3135.5          101900 
         3135.8           98910 
         3136.1           95550 
         3136.4           95370 
         3136.7          100900 
           3137          113000 
         3137.3          130400 
         3137.6          150300 
         3137.9          168900 
         3138.2          182800 
         3138.5          189700 
         3138.8          189300 
         3139.1          182800 
         3139.4          172000 
         3139.7          159400 
           3140          147500 
         3140.3          138100 
         3140.6          131000 
         3140.9          125500 
         3141.2          120200 
         3141.5          114500 
         3141.8          108600 
         3142.1          102900 
         3142.4           97360 
         3142.7           91060 
           3143           83640 
         3143.3           75570 
         3143.6           68360 
         3143.9           63880 
         3144.2           63800 
         3144.5           69100 
         3144.8           79750 
         3145.1           94200 
         3145.4          109200 
         3145.7          120400 
           3146          124400 
         3146.3          120300 
         3146.6          110900 
         3146.9          101700 
         3147.2           98720 
         3147.5          106300 
         3147.8          125400 
         3148.1          153000 
         3148.4          182900 
         3148.7          207200 
           3149          219900 
         3149.3          218400 
         3149.6          204600 
         3149.9          183600 
         3150.2          160900 
         3150.5          141200 
         3150.8          126300 
         3151.1          116600 
         3151.4          111400 
         3151.7          109700 
           3152          110800 
         3152.3          113700 
         3152.6          117300 
         3152.9          120200 
         3153.2          121500 
         3153.5          121300 
         3153.8          121500 
         3154.1          124400 
         3154.4          130900 
         3154.7          139600 
           3155          146800 
         3155.3          148600 
         3155.6          143000 
         3155.9          131200 
         3156.2          116500 
         3156.5          102900 
         3156.8           93300 
         3157.1           88890 
         3157.4           89170 
         3157.7           92600 
           3158           97430 
         3158.3          102100 
         3158.6          105800 
         3158.9          107600 
         3159.2          106900 
         3159.5          103300 
         3159.8           97240 
         3160.1           89940 
         3160.4           83440 
         3160.7           80060 
           3161           81940 
         3161.3           90710 
         3161.6          107100 
         3161.9          130400 
         3162.2          157700 
         3162.5          183700 
         3162.8          202200 
         3163.1          208100 
         3163.4          200000 
         3163.7          180700 
           3164          156700 
         3164.3          134400 
         3164.6          118700 
         3164.9          111800 
         3165.2          114500 
         3165.5          126300 
         3165.8          146600 
         3166.1          173400 
         3166.4          202800 
         3166.7          228800 
           3167          245600 
         3167.3          249000 
         3167.6          239100 
         3167.9          220400 
         3168.2          199900 
         3168.5          185100 
         3168.8          181300 
         3169.1          189500 
         3169.4          207100 
         3169.7          228900 
           3170          250600 
         3170.3          269700 
         3170.6          286900 
         3170.9          304500 
         3171.2          324700 
         3171.5          346500 
         3171.8          365500 
         3172.1          375700 
         3172.4          373500 
         3172.7          360900 
           3173          345700 
         3173.3          336800 
         3173.6          339900 
         3173.9          354000 
         3174.2          373700 
         3174.5          394000 
         3174.8          412600 
         3175.1          430300 
         3175.4          447600 
         3175.7          461800 
           3176          466600 
         3176.3          455700 
         3176.6          426300 
         3176.9          381900 
         3177.2          332000 
         3177.5          287300 
         3177.8          255400 
         3178.1          237500 
