# Granada HRES Library
# atmosphere = Phoenix  (atmosphere model used)
# feh = 0  (value for [Fe/H] for the model.)
# logg = 1.5 log(cm/s2) (value for Log(G) for the model.)
# teff = 3500 K (value for the effective temperature for the model. Temperatures are given in K)
#
# column 1: WAVELENGTH (ANGSTROM), Wavelength in Angstrom
# column 2: FLUX (ERG/CM2/S/A), Flux in erg/cm2/s/A
         3000.2           121.7 
         3000.5           106.9 
         3000.8           97.57 
         3001.1            92.7 
         3001.4           90.47 
         3001.7           88.81 
           3002            86.6 
         3002.3           84.42 
         3002.6           84.34 
         3002.9           89.08 
         3003.2           100.7 
         3003.5             120 
         3003.8           145.9 
         3004.1           175.9 
         3004.4           206.8 
         3004.7           235.1 
           3005           257.7 
         3005.3             272 
         3005.6           276.4 
         3005.9           270.5 
         3006.2           255.5 
         3006.5           234.4 
         3006.8           210.9 
         3007.1             189 
         3007.4           172.2 
         3007.7             163 
           3008           162.6 
         3008.3           170.8 
         3008.6           186.8 
         3008.9           209.6 
         3009.2           238.5 
         3009.5           271.6 
         3009.8           305.3 
         3010.1           333.2 
         3010.4           348.3 
         3010.7           347.1 
           3011           330.9 
         3011.3           306.6 
         3011.6           283.3 
         3011.9           268.3 
         3012.2             264 
         3012.5           268.4 
         3012.8           277.1 
         3013.1           285.5 
         3013.4           290.8 
         3013.7             292 
           3014           289.7 
         3014.3           285.5 
         3014.6           281.3 
         3014.9             279 
         3015.2           279.1 
         3015.5           281.1 
         3015.8           283.4 
         3016.1           284.5 
         3016.4           283.1 
         3016.7           278.1 
           3017           269.2 
         3017.3           257.1 
         3017.6           243.1 
         3017.9           228.3 
         3018.2           212.9 
         3018.5           196.1 
         3018.8           177.3 
         3019.1           156.4 
         3019.4           134.4 
         3019.7           113.2 
           3020           94.72 
         3020.3           81.15 
         3020.6           74.53 
         3020.9           76.26 
         3021.2           86.67 
         3021.5           104.6 
         3021.8           127.6 
         3022.1           152.1 
         3022.4             174 
         3022.7           189.6 
           3023           196.4 
         3023.3             194 
         3023.6           184.2 
         3023.9           170.5 
         3024.2           156.7 
         3024.5           145.5 
         3024.8           137.5 
         3025.1           132.3 
         3025.4           129.9 
         3025.7           130.5 
           3026           135.1 
         3026.3           143.5 
         3026.6           154.4 
         3026.9           165.5 
         3027.2           175.1 
         3027.5             183 
         3027.8           190.9 
         3028.1           201.4 
         3028.4           216.5 
         3028.7           236.5 
           3029           259.6 
         3029.3             282 
         3029.6           299.8 
         3029.9           310.7 
         3030.2           315.5 
         3030.5           318.2 
         3030.8           325.2 
         3031.1           342.5 
         3031.4           372.3 
         3031.7           410.5 
           3032           447.1 
         3032.3           469.9 
         3032.6           469.5 
         3032.9           444.9 
         3033.2           403.2 
         3033.5             356 
         3033.8           315.5 
         3034.1           289.5 
         3034.4           280.3 
         3034.7           284.5 
           3035           294.8 
         3035.3           303.3 
         3035.6           303.5 
         3035.9           292.7 
         3036.2           271.9 
         3036.5           245.6 
         3036.8           220.1 
         3037.1           202.1 
         3037.4           196.6 
         3037.7             205 
           3038           224.8 
         3038.3           250.6 
         3038.6           277.2 
         3038.9           301.6 
         3039.2           322.8 
         3039.5           340.6 
         3039.8           353.8 
         3040.1           360.2 
         3040.4             358 
         3040.7           347.5 
           3041           332.6 
         3041.3           319.6 
         3041.6           314.7 
         3041.9           321.6 
         3042.2             339 
         3042.5           361.2 
         3042.8           380.4 
         3043.1           390.9 
         3043.4           391.2 
         3043.7           384.7 
           3044           377.3 
         3044.3             374 
         3044.6           377.5 
         3044.9           386.8 
         3045.2           397.7 
         3045.5           403.8 
         3045.8             399 
         3046.1           379.3 
         3046.4           344.8 
         3046.7           300.5 
           3047           253.9 
         3047.3             214 
         3047.6           187.4 
         3047.9           177.9 
         3048.2           185.3 
         3048.5           206.6 
         3048.8           236.4 
         3049.1           267.2 
         3049.4           291.3 
         3049.7             303 
           3050           300.9 
         3050.3           288.3 
         3050.6           271.5 
         3050.9           256.8 
         3051.2           247.9 
         3051.5           245.7 
         3051.8           248.3 
         3052.1             253 
         3052.4           256.4 
         3052.7             256 
           3053           250.6 
         3053.3           241.3 
         3053.6           230.8 
         3053.9           222.2 
         3054.2           217.6 
         3054.5           217.1 
         3054.8           219.2 
         3055.1             221 
         3055.4           220.6 
         3055.7             217 
           3056           210.9 
         3056.3           204.1 
         3056.6           198.6 
         3056.9           195.8 
         3057.2             196 
         3057.5           197.9 
         3057.8           199.4 
         3058.1           198.5 
         3058.4           195.1 
         3058.7           191.7 
           3059           192.8 
         3059.3           202.5 
         3059.6             223 
         3059.9           252.8 
         3060.2           287.7 
         3060.5             322 
         3060.8           350.7 
         3061.1           370.6 
         3061.4           380.5 
         3061.7           380.5 
           3062           370.6 
         3062.3           350.7 
         3062.6           321.1 
         3062.9           284.6 
         3063.2           246.8 
         3063.5             215 
         3063.8           194.4 
         3064.1           186.9 
         3064.4           189.3 
         3064.7           195.8 
           3065           201.4 
         3065.3             204 
         3065.6           205.5 
         3065.9           210.1 
         3066.2           220.7 
         3066.5           237.5 
         3066.8           257.6 
         3067.1           277.1 
         3067.4           293.8 
         3067.7             308 
           3068           321.2 
         3068.3           333.8 
         3068.6           343.3 
         3068.9           345.6 
         3069.2           337.1 
         3069.5           318.1 
         3069.8           293.4 
         3070.1           270.4 
         3070.4           256.2 
         3070.7           255.1 
           3071           267.6 
         3071.3           291.8 
         3071.6           325.3 
         3071.9           365.3 
         3072.2           408.9 
         3072.5           451.8 
         3072.8           488.9 
         3073.1           515.3 
         3073.4           528.3 
         3073.7           527.6 
           3074           515.1 
         3074.3           493.9 
         3074.6           469.2 
         3074.9           448.1 
         3075.2           438.5 
         3075.5           445.9 
         3075.8             470 
         3076.1           503.3 
         3076.4           533.6 
         3076.7           549.7 
           3077           546.5 
         3077.3           526.6 
         3077.6           498.3 
         3077.9           470.1 
         3078.2           447.5 
         3078.5           430.9 
         3078.8           416.9 
         3079.1           401.2 
         3079.4           380.8 
         3079.7           354.9 
           3080           324.7 
         3080.3           292.5 
         3080.6           260.8 
         3080.9           232.4 
         3081.2           209.9 
         3081.5           195.8 
         3081.8           191.4 
         3082.1           195.6 
         3082.4             205 
         3082.7           215.1 
           3083           222.4 
         3083.3           226.8 
         3083.6             231 
         3083.9           239.7 
         3084.2           256.6 
         3084.5           283.4 
         3084.8           318.8 
         3085.1           358.7 
         3085.4           397.8 
         3085.7           431.6 
           3086           459.3 
         3086.3             484 
         3086.6           511.5 
         3086.9           546.4 
         3087.2           589.6 
         3087.5           636.9 
         3087.8           679.1 
         3088.1           703.9 
         3088.4           700.7 
         3088.7           665.3 
           3089           602.7 
         3089.3           525.9 
         3089.6             450 
         3089.9           386.3 
         3090.2           338.8 
         3090.5           304.9 
         3090.8           278.6 
         3091.1           255.1 
         3091.4           231.9 
         3091.7           209.7 
           3092           191.5 
         3092.3           181.6 
         3092.6           184.3 
         3092.9           202.4 
         3093.2           235.3 
         3093.5           279.2 
         3093.8           327.9 
         3094.1           374.6 
         3094.4           413.3 
         3094.7           439.3 
           3095           449.7 
         3095.3           443.9 
         3095.6           426.3 
         3095.9           406.4 
         3096.2           398.2 
         3096.5           415.8 
         3096.8           466.5 
         3097.1           545.9 
         3097.4           635.8 
         3097.7           708.8 
           3098           739.3 
         3098.3           713.8 
         3098.6           637.5 
         3098.9           531.5 
         3099.2           423.6 
         3099.5           336.6 
         3099.8           281.8 
         3100.1           257.7 
         3100.4           254.9 
         3100.7           262.4 
           3101           274.3 
         3101.3           323.8 
         3101.6           378.7 
         3101.9           460.5 
         3102.2           562.9 
         3102.5           670.2 
         3102.8           763.2 
         3103.1           828.3 
         3103.4           862.7 
         3103.7           873.2 
           3104           867.8 
         3104.3           849.3 
         3104.6           813.7 
         3104.9           755.8 
         3105.2           676.6 
         3105.5           584.7 
         3105.8           493.9 
         3106.1           417.2 
         3106.4           363.5 
         3106.7           336.8 
           3107           336.3 
         3107.3           356.5 
         3107.6           388.7 
         3107.9           422.8 
         3108.2           449.4 
         3108.5           463.2 
         3108.8             464 
         3109.1           456.7 
         3109.4           449.9 
         3109.7           452.4 
           3110           470.2 
         3110.3           503.2 
         3110.6           543.6 
         3110.9           577.6 
         3111.2           590.8 
         3111.5             575 
         3111.8           532.5 
         3112.1           474.3 
         3112.4           415.9 
         3112.7           370.9 
           3113             348 
         3113.3           350.1 
         3113.6           377.2 
         3113.9           427.3 
         3114.2           498.2 
         3114.5           586.3 
         3114.8           683.8 
         3115.1           776.5 
         3115.4           845.8 
         3115.7           874.6 
           3116           855.6 
         3116.3           797.3 
         3116.6           723.1 
         3116.9           661.3 
         3117.2           634.2 
         3117.5           649.7 
         3117.8           699.8 
         3118.1           765.8 
         3118.4           826.8 
         3118.7           866.8 
           3119           879.9 
         3119.3           870.9 
         3119.6           851.7 
         3119.9             834 
         3120.2           821.2 
         3120.5           806.6 
         3120.8           777.9 
         3121.1           727.7 
         3121.4             661 
         3121.7           596.6 
           3122           557.9 
         3122.3             561 
         3122.6           605.6 
         3122.9           674.7 
         3123.2           742.8 
         3123.5           787.6 
         3123.8             801 
         3124.1             791 
         3124.4           774.6 
         3124.7           768.2 
           3125           777.7 
         3125.3           797.7 
         3125.6           817.7 
         3125.9           829.8 
         3126.2           833.1 
         3126.5           829.6 
         3126.8           819.6 
         3127.1           799.4 
         3127.4           763.9 
         3127.7           712.2 
           3128           649.1 
         3128.3           584.1 
         3128.6           527.2 
         3128.9           485.6 
         3129.2           462.2 
         3129.5           455.8 
         3129.8           464.6 
         3130.1           489.1 
         3130.4           532.5 
         3130.7           597.3 
           3131             679 
         3131.3           763.4 
         3131.6           830.4 
         3131.9           862.7 
         3132.2           854.1 
         3132.5           811.8 
         3132.8           751.4 
         3133.1           689.6 
         3133.4           640.3 
         3133.7           612.9 
           3134           610.8 
         3134.3           629.2 
         3134.6           655.3 
         3134.9           672.4 
         3135.2           669.6 
         3135.5           646.8 
         3135.8           615.4 
         3136.1             591 
         3136.4           586.4 
         3136.7           607.4 
           3137           652.5 
         3137.3           714.1 
         3137.6           779.3 
         3137.9           833.3 
         3138.2           864.1 
         3138.5           867.6 
         3138.8           849.9 
         3139.1           824.8 
         3139.4           808.1 
         3139.7           812.4 
           3140           842.5 
         3140.3           893.4 
         3140.6           952.8 
         3140.9            1007 
         3141.2            1049 
         3141.5            1080 
         3141.8            1102 
         3142.1            1114 
         3142.4            1105 
         3142.7            1064 
           3143           991.1 
         3143.3             898 
         3143.6           803.8 
         3143.9           723.9 
         3144.2           663.6 
         3144.5           619.5 
         3144.8           585.4 
         3145.1           557.4 
         3145.4           535.2 
         3145.7           521.3 
           3146           519.4 
         3146.3             533 
         3146.6           564.6 
         3146.9           614.4 
         3147.2           680.4 
         3147.5           760.7 
         3147.8           853.4 
         3148.1             956 
         3148.4            1061 
         3148.7            1157 
           3149            1231 
         3149.3            1275 
         3149.6            1286 
         3149.9            1267 
         3150.2            1217 
         3150.5            1138 
         3150.8            1035 
         3151.1           919.5 
         3151.4           806.7 
         3151.7           709.4 
           3152           633.9 
         3152.3             579 
         3152.6           540.1 
         3152.9           513.7 
         3153.2           499.6 
         3153.5           501.4 
         3153.8           523.5 
         3154.1           566.2 
         3154.4           622.4 
         3154.7           679.2 
           3155           723.5 
         3155.3           749.7 
         3155.6           761.1 
         3155.9           766.2 
         3156.2           772.5 
         3156.5           782.5 
         3156.8           794.1 
         3157.1           804.3 
         3157.4           812.2 
         3157.7           820.3 
           3158           833.4 
         3158.3           855.4 
         3158.6           885.1 
         3158.9           914.3 
         3159.2           931.1 
         3159.5           925.8 
         3159.8           899.2 
         3160.1           863.8 
         3160.4           836.7 
         3160.7           829.1 
           3161           840.6 
         3161.3           861.8 
         3161.6             884 
         3161.9           906.6 
         3162.2           936.6 
         3162.5           981.2 
         3162.8            1040 
         3163.1            1106 
         3163.4            1169 
         3163.7            1224 
           3164            1266 
         3164.3            1290 
         3164.6            1291 
         3164.9            1270 
         3165.2            1232 
         3165.5            1194 
         3165.8            1177 
         3166.1            1196 
         3166.4            1259 
         3166.7            1360 
           3167            1477 
         3167.3            1578 
         3167.6            1630 
         3167.9            1619 
         3168.2            1554 
         3168.5            1465 
         3168.8            1391 
         3169.1            1352 
         3169.4            1344 
         3169.7            1343 
           3170            1326 
         3170.3            1283 
         3170.6            1224 
         3170.9            1169 
         3171.2            1139 
         3171.5            1138 
         3171.8            1157 
         3172.1            1181 
         3172.4            1199 
         3172.7            1212 
           3173            1235 
         3173.3            1282 
         3173.6            1359 
         3173.9            1457 
         3174.2            1556 
         3174.5            1636 
         3174.8            1687 
         3175.1            1707 
         3175.4            1700 
         3175.7            1671 
           3176            1620 
         3176.3            1554 
         3176.6            1480 
         3176.9            1410 
         3177.2            1355 
         3177.5            1321 
         3177.8            1305 
         3178.1            1298 
