# Granada HRES Library
# atmosphere = Phoenix  (atmosphere model used)
# feh = 0  (value for [Fe/H] for the model.)
# logg = -0.5 log(cm/s2) (value for Log(G) for the model.)
# teff = 3500 K (value for the effective temperature for the model. Temperatures are given in K)
#
# column 1: WAVELENGTH (ANGSTROM), Wavelength in Angstrom
# column 2: FLUX (ERG/CM2/S/A), Flux in erg/cm2/s/A
         3000.2           7.697 
         3000.5           6.414 
         3000.8           5.572 
         3001.1           5.125 
         3001.4           4.938 
         3001.7           4.855 
           3002           4.784 
         3002.3           4.769 
         3002.6            4.98 
         3002.9           5.642 
         3003.2           6.945 
         3003.5           8.969 
         3003.8           11.64 
         3004.1           14.76 
         3004.4           18.01 
         3004.7           21.06 
           3005           23.58 
         3005.3           25.25 
         3005.6           25.85 
         3005.9           25.27 
         3006.2           23.58 
         3006.5           21.05 
         3006.8           18.11 
         3007.1           15.26 
         3007.4           12.96 
         3007.7           11.57 
           3008           11.29 
         3008.3           12.14 
         3008.6           14.01 
         3008.9           16.71 
         3009.2           20.04 
         3009.5           23.72 
         3009.8           27.29 
         3010.1           30.16 
         3010.4           31.74 
         3010.7           31.71 
           3011           30.27 
         3011.3           28.06 
         3011.6           25.96 
         3011.9           24.63 
         3012.2           24.33 
         3012.5           24.83 
         3012.8           25.67 
         3013.1           26.34 
         3013.4           26.54 
         3013.7           26.19 
           3014           25.38 
         3014.3           24.36 
         3014.6            23.4 
         3014.9           22.74 
         3015.2           22.45 
         3015.5           22.45 
         3015.8           22.57 
         3016.1           22.61 
         3016.4           22.38 
         3016.7           21.77 
           3017           20.75 
         3017.3           19.39 
         3017.6           17.85 
         3017.9           16.26 
         3018.2           14.67 
         3018.5           13.04 
         3018.8            11.3 
         3019.1           9.463 
         3019.4           7.626 
         3019.7           5.924 
           3020           4.508 
         3020.3           3.512 
         3020.6           3.049 
         3020.9           3.201 
         3021.2           3.986 
         3021.5           5.345 
         3021.8           7.117 
         3022.1           9.055 
         3022.4           10.85 
         3022.7            12.2 
           3023           12.88 
         3023.3           12.85 
         3023.6           12.23 
         3023.9           11.32 
         3024.2           10.39 
         3024.5           9.621 
         3024.8           9.067 
         3025.1           8.711 
         3025.4           8.582 
         3025.7           8.787 
           3026           9.445 
         3026.3           10.58 
         3026.6           12.05 
         3026.9           13.63 
         3027.2           15.12 
         3027.5           16.43 
         3027.8           17.67 
         3028.1           19.07 
         3028.4           20.82 
         3028.7           22.98 
           3029           25.36 
         3029.3           27.61 
         3029.6           29.29 
         3029.9           30.17 
         3030.2           30.33 
         3030.5            30.2 
         3030.8           30.46 
         3031.1           31.76 
         3031.4           34.39 
         3031.7           38.06 
           3032           41.96 
         3032.3              45 
         3032.6           46.31 
         3032.9           45.63 
         3033.2            43.3 
         3033.5            40.1 
         3033.8           36.88 
         3034.1           34.28 
         3034.4           32.63 
         3034.7           31.85 
           3035           31.46 
         3035.3           30.84 
         3035.6           29.44 
         3035.9           27.05 
         3036.2            23.8 
         3036.5           20.18 
         3036.8           16.83 
         3037.1           14.39 
         3037.4           13.35 
         3037.7           13.86 
           3038           15.75 
         3038.3           18.61 
         3038.6           21.95 
         3038.9           25.39 
         3039.2           28.66 
         3039.5           31.56 
         3039.8           33.88 
         3040.1           35.42 
         3040.4           36.03 
         3040.7           35.79 
           3041           35.02 
         3041.3           34.26 
         3041.6           34.08 
         3041.9           34.85 
         3042.2            36.5 
         3042.5           38.49 
         3042.8           40.06 
         3043.1           40.67 
         3043.4           40.22 
         3043.7           39.11 
           3044           37.95 
         3044.3           37.23 
         3044.6           37.13 
         3044.9           37.47 
         3045.2           37.76 
         3045.5           37.37 
         3045.8           35.78 
         3046.1           32.75 
         3046.4           28.47 
         3046.7           23.56 
           3047           18.77 
         3047.3           14.91 
         3047.6           12.53 
         3047.9           11.87 
         3048.2           12.87 
         3048.5           15.21 
         3048.8            18.3 
         3049.1           21.39 
         3049.4           23.73 
         3049.7           24.76 
           3050           24.41 
         3050.3           23.05 
         3050.6           21.39 
         3050.9           20.13 
         3051.2           19.68 
         3051.5           20.12 
         3051.8            21.2 
         3052.1           22.49 
         3052.4           23.53 
         3052.7           23.92 
           3053           23.52 
         3053.3           22.48 
         3053.6           21.22 
         3053.9           20.19 
         3054.2            19.7 
         3054.5           19.78 
         3054.8           20.19 
         3055.1            20.6 
         3055.4           20.67 
         3055.7           20.27 
           3056           19.42 
         3056.3            18.3 
         3056.6           17.11 
         3056.9           16.01 
         3057.2           15.07 
         3057.5           14.27 
         3057.8           13.52 
         3058.1           12.75 
         3058.4           12.03 
         3058.7           11.59 
           3059           11.79 
         3059.3           12.96 
         3059.6           15.23 
         3059.9            18.5 
         3060.2           22.38 
         3060.5            26.4 
         3060.8           30.09 
         3061.1           33.13 
         3061.4           35.31 
         3061.7            36.5 
           3062           36.54 
         3062.3           35.26 
         3062.6           32.62 
         3062.9           28.91 
         3063.2           24.79 
         3063.5           21.11 
         3063.8           18.61 
         3064.1           17.57 
         3064.4           17.74 
         3064.7           18.54 
           3065           19.33 
         3065.3           19.85 
         3065.6           20.21 
         3065.9           20.81 
         3066.2              22 
         3066.5           23.84 
         3066.8            26.1 
         3067.1           28.47 
         3067.4            30.8 
         3067.7           33.16 
           3068           35.65 
         3068.3           38.14 
         3068.6           40.14 
         3068.9           40.98 
         3069.2           40.23 
         3069.5           37.96 
         3069.8           34.85 
         3070.1           31.84 
         3070.4           29.78 
         3070.7           29.15 
           3071           30.09 
         3071.3            32.5 
         3071.6           36.25 
         3071.9           41.21 
         3072.2           47.09 
         3072.5           53.32 
         3072.8           59.03 
         3073.1           63.27 
         3073.4           65.37 
         3073.7           65.07 
           3074           62.61 
         3074.3           58.56 
         3074.6           53.87 
         3074.9           49.71 
         3075.2           47.23 
         3075.5           47.17 
         3075.8            49.5 
         3076.1           53.26 
         3076.4           56.97 
         3076.7           59.21 
           3077           59.25 
         3077.3           57.26 
         3077.6           54.04 
         3077.9           50.53 
         3078.2           47.39 
         3078.5           44.81 
         3078.8           42.61 
         3079.1           40.42 
         3079.4           37.96 
         3079.7           35.13 
           3080           31.94 
         3080.3           28.54 
         3080.6           25.07 
         3080.9           21.77 
         3081.2           18.91 
         3081.5           16.83 
         3081.8           15.78 
         3082.1           15.79 
         3082.4           16.62 
         3082.7           17.86 
           3083           19.19 
         3083.3           20.57 
         3083.6            22.3 
         3083.9            24.9 
         3084.2           28.83 
         3084.5           34.23 
         3084.8           40.86 
         3085.1           48.06 
         3085.4           55.02 
         3085.7           61.13 
           3086           66.25 
         3086.3           70.65 
         3086.6           74.62 
         3086.9           78.21 
         3087.2           81.18 
         3087.5           83.15 
         3087.8           83.72 
         3088.1           82.42 
         3088.4           78.82 
         3088.7           72.84 
           3089            65.1 
         3089.3           56.84 
         3089.6           49.45 
         3089.9           43.85 
         3090.2           40.02 
         3090.5           37.21 
         3090.8           34.39 
         3091.1           30.94 
         3091.4           26.83 
         3091.7           22.58 
           3092           18.96 
         3092.3           16.71 
         3092.6           16.39 
         3092.9           18.24 
         3093.2            22.1 
         3093.5           27.38 
         3093.8           33.28 
         3094.1           38.93 
         3094.4           43.64 
         3094.7           46.95 
           3095           48.65 
         3095.3           48.79 
         3095.6           47.84 
         3095.9           46.77 
         3096.2           47.03 
         3096.5           50.13 
         3096.8           56.92 
         3097.1           66.94 
         3097.4           78.09 
         3097.7            87.1 
           3098           90.76 
         3098.3           87.34 
         3098.6            77.4 
         3098.9           63.52 
         3099.2           49.18 
         3099.5           37.26 
         3099.8           29.21 
         3100.1           24.92 
         3100.4           23.28 
         3100.7           23.06 
           3101           23.65 
         3101.3           29.22 
         3101.6           36.41 
         3101.9           47.29 
         3102.2           61.02 
         3102.5           75.59 
         3102.8           88.56 
         3103.1           98.23 
         3103.4           104.2 
         3103.7           107.4 
           3104           108.6 
         3104.3           107.9 
         3104.6           104.3 
         3104.9           97.12 
         3105.2           86.33 
         3105.5           73.43 
         3105.8           60.64 
         3106.1           50.12 
         3106.4           43.32 
         3106.7           40.78 
           3107           42.17 
         3107.3            46.5 
         3107.6           52.29 
         3107.9           57.93 
         3108.2           62.03 
         3108.5           63.94 
         3108.8           63.74 
         3109.1           62.21 
         3109.4           60.54 
         3109.7              60 
           3110           61.48 
         3110.3           65.07 
         3110.6           69.77 
         3110.9           73.72 
         3111.2           74.88 
         3111.5           72.08 
         3111.8           65.58 
         3112.1           56.99 
         3112.4           48.57 
         3112.7           42.25 
           3113           39.26 
         3113.3              40 
         3113.6           44.42 
         3113.9            52.4 
         3114.2           63.89 
         3114.5           78.67 
         3114.8           95.73 
         3115.1           112.7 
         3115.4           126.5 
         3115.7           133.4 
           3116           131.6 
         3116.3           121.9 
         3116.6           107.9 
         3116.9           94.29 
         3117.2           85.05 
         3117.5           82.29 
         3117.8           85.74 
         3118.1            93.2 
         3118.4           101.7 
         3118.7           108.2 
           3119           111.1 
         3119.3           110.4 
         3119.6           107.1 
         3119.9           102.7 
         3120.2            98.3 
         3120.5           93.94 
         3120.8              89 
         3121.1           83.13 
         3121.4           77.05 
         3121.7           72.55 
           3122           71.72 
         3122.3            75.8 
         3122.6           84.34 
         3122.9           95.19 
         3123.2           105.4 
         3123.5           112.5 
         3123.8           115.3 
         3124.1           115.1 
         3124.4           113.8 
         3124.7           113.3 
           3125           114.3 
         3125.3           116.2 
         3125.6           118.1 
         3125.9           119.1 
         3126.2             119 
         3126.5           118.1 
         3126.8           116.3 
         3127.1           112.6 
         3127.4           106.4 
         3127.7           97.72 
           3128           87.25 
         3128.3           76.54 
         3128.6           67.16 
         3128.9           60.24 
         3129.2            56.2 
         3129.5           54.77 
         3129.8            55.5 
         3130.1           58.32 
         3130.4           63.64 
         3130.7           71.89 
           3131           82.72 
         3131.3           94.43 
         3131.6           104.4 
         3131.9             110 
         3132.2           109.8 
         3132.5           104.1 
         3132.8           94.73 
         3133.1           84.51 
         3133.4           76.16 
         3133.7           71.68 
           3134            71.7 
         3134.3           75.22 
         3134.6           79.88 
         3134.9           83.09 
         3135.2           83.32 
         3135.5           80.84 
         3135.8           77.39 
         3136.1           75.27 
         3136.4           76.25 
         3136.7            81.1 
           3137           89.55 
         3137.3           100.3 
         3137.6           111.3 
         3137.9             120 
         3138.2           124.6 
         3138.5           124.3 
         3138.8           120.3 
         3139.1           114.9 
         3139.4           110.7 
         3139.7           109.9 
           3140           113.2 
         3140.3           119.7 
         3140.6           127.8 
         3140.9           135.3 
         3141.2             141 
         3141.5           144.6 
         3141.8           146.5 
         3142.1           146.4 
         3142.4           143.5 
         3142.7             137 
           3143           127.2 
         3143.3           115.5 
         3143.6           104.2 
         3143.9              95 
         3144.2           88.18 
         3144.5           83.14 
         3144.8           79.12 
         3145.1           75.87 
         3145.4           73.66 
         3145.7           73.04 
           3146           74.41 
         3146.3           77.87 
         3146.6           83.21 
         3146.9           89.95 
         3147.2           97.58 
         3147.5             106 
         3147.8           115.7 
         3148.1           127.6 
         3148.4             142 
         3148.7           158.9 
           3149           176.8 
         3149.3           193.7 
         3149.6           207.7 
         3149.9           216.1 
         3150.2           216.7 
         3150.5           207.9 
         3150.8           190.6 
         3151.1           167.7 
         3151.4           143.5 
         3151.7           121.6 
           3152           103.7 
         3152.3           89.91 
         3152.6           79.34 
         3152.9            71.3 
         3153.2           65.73 
         3153.5           63.14 
         3153.8            64.1 
         3154.1            68.7 
         3154.4           76.21 
         3154.7            85.3 
           3155           94.67 
         3155.3           103.5 
         3155.6           111.6 
         3155.9           118.4 
         3156.2           123.2 
         3156.5           125.1 
         3156.8           123.7 
         3157.1           119.7 
         3157.4           114.8 
         3157.7           110.8 
           3158           109.2 
         3158.3           110.8 
         3158.6           114.9 
         3158.9           119.8 
         3159.2           123.2 
         3159.5             123 
         3159.8           118.9 
         3160.1           112.3 
         3160.4           105.6 
         3160.7           100.8 
           3161           98.84 
         3161.3           99.22 
         3161.6           101.4 
         3161.9           105.3 
         3162.2           111.4 
         3162.5           119.9 
         3162.8           130.2 
         3163.1             141 
         3163.4           151.1 
         3163.7           159.7 
           3164           166.3 
         3164.3           170.2 
         3164.6           170.8 
         3164.9           168.2 
         3165.2           163.7 
         3165.5           159.7 
         3165.8           158.6 
         3166.1           162.3 
         3166.4           171.2 
         3166.7           184.1 
           3167             198 
         3167.3           208.8 
         3167.6           213.1 
         3167.9           209.5 
         3168.2           200.1 
         3168.5           189.3 
         3168.8           181.6 
         3169.1           178.9 
         3169.4           179.7 
         3169.7           180.4 
           3170           177.8 
         3170.3           171.1 
         3170.6           162.3 
         3170.9             155 
         3171.2           151.7 
         3171.5           153.1 
         3171.8           157.8 
         3172.1           163.6 
         3172.4           169.2 
         3172.7             175 
           3173           182.5 
         3173.3           193.1 
         3173.6           206.7 
         3173.9           221.1 
         3174.2           233.1 
         3174.5           240.9 
         3174.8           243.9 
         3175.1           243.1 
         3175.4           239.8 
         3175.7           234.9 
           3176           228.8 
         3176.3           222.3 
         3176.6           215.7 
         3176.9             210 
         3177.2           205.3 
         3177.5           201.5 
         3177.8           198.1 
         3178.1           193.9 
