# Granada HRES Library
# atmosphere = Phoenix  (atmosphere model used)
# feh = -10  (value for [Fe/H] for the model.)
# logg = 0 log(cm/s2) (value for Log(G) for the model.)
# teff = 3000 K (value for the effective temperature for the model. Temperatures are given in K)
#
# column 1: WAVELENGTH (ANGSTROM), Wavelength in Angstrom
# column 2: FLUX (ERG/CM2/S/A), Flux in erg/cm2/s/A
         3000.2           5.056 
         3000.5           4.047 
         3000.8           3.373 
         3001.1           3.003 
         3001.4           2.842 
         3001.7           2.786 
           3002           2.774 
         3002.3           2.833 
         3002.6           3.073 
         3002.9           3.643 
         3003.2           4.659 
         3003.5            6.16 
         3003.8           8.074 
         3004.1           10.24 
         3004.4            12.4 
         3004.7           14.34 
           3005           15.85 
         3005.3           16.76 
         3005.6           16.95 
         3005.9           16.39 
         3006.2           15.14 
         3006.5           13.38 
         3006.8           11.39 
         3007.1           9.474 
         3007.4           7.893 
         3007.7            6.86 
           3008           6.499 
         3008.3           6.863 
         3008.6           7.969 
         3008.9           9.827 
         3009.2           12.41 
         3009.5           15.56 
         3009.8            18.9 
         3010.1           21.86 
         3010.4           23.84 
         3010.7           24.48 
           3011           23.87 
         3011.3           22.49 
         3011.6           20.95 
         3011.9            19.8 
         3012.2           19.26 
         3012.5           19.18 
         3012.8            19.3 
         3013.1           19.37 
         3013.4           19.26 
         3013.7           18.94 
           3014           18.48 
         3014.3           17.92 
         3014.6           17.36 
         3014.9           16.89 
         3015.2           16.56 
         3015.5            16.3 
         3015.8           16.02 
         3016.1           15.62 
         3016.4           14.98 
         3016.7            14.1 
           3017           13.01 
         3017.3           11.86 
         3017.6           10.76 
         3017.9           9.776 
         3018.2           8.847 
         3018.5           7.883 
         3018.8           6.809 
         3019.1           5.633 
         3019.4           4.437 
         3019.7           3.336 
           3020           2.439 
         3020.3           1.826 
         3020.6           1.557 
         3020.9           1.671 
         3021.2           2.185 
         3021.5           3.071 
         3021.8           4.248 
         3022.1           5.566 
         3022.4           6.823 
         3022.7           7.808 
           3023           8.353 
         3023.3           8.405 
         3023.6           8.046 
         3023.9           7.455 
         3024.2           6.829 
         3024.5           6.294 
         3024.8           5.896 
         3025.1           5.641 
         3025.4           5.566 
         3025.7           5.742 
           3026           6.234 
         3026.3           7.011 
         3026.6           7.933 
         3026.9           8.809 
         3027.2           9.522 
         3027.5           10.12 
         3027.8           10.79 
         3028.1           11.83 
         3028.4           13.42 
         3028.7           15.51 
           3029           17.84 
         3029.3           19.97 
         3029.6           21.47 
         3029.9           22.14 
         3030.2           22.09 
         3030.5           21.74 
         3030.8           21.64 
         3031.1           22.27 
         3031.4           23.77 
         3031.7           25.86 
           3032           27.84 
         3032.3           28.93 
         3032.6           28.57 
         3032.9           26.71 
         3033.2           23.82 
         3033.5           20.73 
         3033.8           18.25 
         3034.1           16.91 
         3034.4            16.8 
         3034.7           17.54 
           3035           18.51 
         3035.3           19.07 
         3035.6           18.79 
         3035.9           17.54 
         3036.2           15.54 
         3036.5           13.15 
         3036.8           10.92 
         3037.1           9.354 
         3037.4           8.827 
         3037.7           9.483 
           3038            11.2 
         3038.3           13.65 
         3038.6           16.45 
         3038.9           19.22 
         3039.2           21.71 
         3039.5           23.65 
         3039.8            24.8 
         3040.1           24.95 
         3040.4           24.08 
         3040.7           22.42 
           3041            20.5 
         3041.3           18.94 
         3041.6           18.26 
         3041.9           18.65 
         3042.2           19.92 
         3042.5           21.53 
         3042.8           22.89 
         3043.1           23.58 
         3043.4           23.51 
         3043.7           22.92 
           3044           22.19 
         3044.3           21.68 
         3044.6           21.54 
         3044.9           21.78 
         3045.2           22.17 
         3045.5           22.35 
         3045.8           21.92 
         3046.1           20.58 
         3046.4           18.29 
         3046.7           15.35 
           3047           12.27 
         3047.3           9.651 
         3047.6           7.975 
         3047.9           7.514 
         3048.2             8.3 
         3048.5           10.13 
         3048.8           12.56 
         3049.1           14.99 
         3049.4           16.79 
         3049.7            17.5 
           3050           17.08 
         3050.3           15.89 
         3050.6           14.54 
         3050.9           13.59 
         3051.2           13.39 
         3051.5           13.93 
         3051.8           14.94 
         3052.1           16.02 
         3052.4           16.74 
         3052.7           16.82 
           3053           16.17 
         3053.3           14.98 
         3053.6           13.64 
         3053.9           12.57 
         3054.2           12.08 
         3054.5           12.22 
         3054.8           12.83 
         3055.1           13.58 
         3055.4           14.13 
         3055.7           14.25 
           3056           13.91 
         3056.3           13.21 
         3056.6           12.34 
         3056.9           11.45 
         3057.2           10.63 
         3057.5           9.886 
         3057.8           9.195 
         3058.1           8.532 
         3058.4           7.954 
         3058.7           7.629 
           3059           7.796 
         3059.3           8.657 
         3059.6           10.28 
         3059.9           12.56 
         3060.2           15.27 
         3060.5           18.12 
         3060.8           20.85 
         3061.1           23.28 
         3061.4           25.23 
         3061.7           26.51 
           3062           26.85 
         3062.3           25.99 
         3062.6           23.81 
         3062.9           20.52 
         3063.2           16.66 
         3063.5           12.96 
         3063.8           10.02 
         3064.1           8.158 
         3064.4           7.332 
         3064.7           7.251 
           3065           7.591 
         3065.3           8.164 
         3065.6            8.96 
         3065.9           10.06 
         3066.2           11.49 
         3066.5           13.09 
         3066.8           14.57 
         3067.1           15.61 
         3067.4           16.07 
         3067.7           16.02 
           3068           15.65 
         3068.3           15.15 
         3068.6           14.54 
         3068.9           13.77 
         3069.2           12.78 
         3069.5           11.64 
         3069.8           10.64 
         3070.1           10.18 
         3070.4           10.58 
         3070.7           11.94 
           3071           14.04 
         3071.3           16.48 
         3071.6           18.86 
         3071.9           20.95 
         3072.2           22.79 
         3072.5           24.52 
         3072.8           26.31 
         3073.1           28.18 
         3073.4              30 
         3073.7           31.52 
           3074           32.45 
         3074.3           32.62 
         3074.6           32.16 
         3074.9           31.54 
         3075.2           31.42 
         3075.5           32.36 
         3075.8           34.47 
         3076.1           37.28 
         3076.4           39.88 
         3076.7           41.39 
           3077           41.33 
         3077.3           39.79 
         3077.6           37.35 
         3077.9           34.65 
         3078.2           32.21 
         3078.5           30.15 
         3078.8           28.25 
         3079.1           26.14 
         3079.4           23.59 
         3079.7           20.58 
           3080           17.37 
         3080.3           14.24 
         3080.6           11.46 
         3080.9            9.16 
         3081.2           7.406 
         3081.5           6.233 
         3081.8            5.66 
         3082.1           5.645 
         3082.4           6.058 
         3082.7           6.724 
           3083           7.507 
         3083.3           8.385 
         3083.6           9.446 
         3083.9           10.81 
         3084.2           12.54 
         3084.5           14.66 
         3084.8           17.08 
         3085.1           19.65 
         3085.4           22.13 
         3085.7           24.25 
           3086           25.93 
         3086.3           27.42 
         3086.6           29.27 
         3086.9           32.09 
         3087.2           36.14 
         3087.5           41.11 
         3087.8           46.07 
         3088.1            49.7 
         3088.4           50.79 
         3088.7           48.67 
           3089           43.53 
         3089.3            36.3 
         3089.6           28.28 
         3089.9           20.75 
         3090.2           14.58 
         3090.5           10.09 
         3090.8           7.189 
         3091.1           5.494 
         3091.4           4.584 
         3091.7           4.134 
           3092           3.992 
         3092.3           4.188 
         3092.6            4.87 
         3092.9           6.202 
         3093.2            8.25 
         3093.5           10.92 
         3093.8           13.96 
         3094.1           17.03 
         3094.4           19.73 
         3094.7           21.73 
           3095           22.73 
         3095.3           22.67 
         3095.6           21.88 
         3095.9           21.12 
         3096.2            21.5 
         3096.5           24.05 
         3096.8           29.18 
         3097.1           36.22 
         3097.4           43.44 
         3097.7           48.64 
           3098           50.03 
         3098.3           47.02 
         3098.6           40.48 
         3098.9           32.29 
         3099.2           24.53 
         3099.5           18.69 
         3099.8           15.28 
         3100.1           13.95 
         3100.4           13.85 
         3100.7           14.16 
           3101           14.47 
         3101.3           16.17 
         3101.6           18.84 
         3101.9           23.28 
         3102.2           29.28 
         3102.5           36.15 
         3102.8           42.94 
         3103.1           48.85 
         3103.4           53.38 
         3103.7           56.33 
           3104           57.49 
         3104.3           56.62 
         3104.6            53.5 
         3104.9           48.34 
         3105.2           41.83 
         3105.5           35.04 
         3105.8           29.04 
         3106.1           24.59 
         3106.4           22.08 
         3106.7           21.61 
           3107              23 
         3107.3           25.74 
         3107.6           28.98 
         3107.9           31.75 
         3108.2           33.31 
         3108.5           33.44 
         3108.8           32.59 
         3109.1           31.64 
         3109.4           31.63 
         3109.7           33.34 
           3110           36.93 
         3110.3           41.91 
         3110.6           47.12 
         3110.9           51.04 
         3111.2           52.38 
         3111.5           50.57 
         3111.8           46.01 
         3112.1            39.9 
         3112.4           33.68 
         3112.7           28.55 
           3113           25.29 
         3113.3           24.19 
         3113.6           25.36 
         3113.9           28.73 
         3114.2           34.12 
         3114.5              41 
         3114.8           48.39 
         3115.1           54.91 
         3115.4           59.07 
         3115.7           59.78 
           3116           56.93 
         3116.3           51.63 
         3116.6           45.99 
         3116.9           42.37 
         3117.2           42.48 
         3117.5            46.7 
         3117.8           53.96 
         3118.1           62.24 
         3118.4           69.39 
         3118.7           73.92 
           3119           75.43 
         3119.3            74.6 
         3119.6           72.62 
         3119.9           70.44 
         3120.2           68.21 
         3120.5           65.24 
         3120.8           60.56 
         3121.1           53.81 
         3121.4           45.79 
         3121.7           38.31 
           3122           33.41 
         3122.3           32.39 
         3122.6            35.1 
         3122.9           40.02 
         3123.2           44.99 
         3123.5           48.14 
         3123.8            48.7 
         3124.1           47.18 
         3124.4           44.91 
         3124.7           43.21 
           3125           42.68 
         3125.3           43.02 
         3125.6           43.37 
         3125.9              43 
         3126.2           41.77 
         3126.5           39.98 
         3126.8           38.03 
         3127.1           36.05 
         3127.4           33.98 
         3127.7            31.7 
           3128            29.3 
         3128.3           27.01 
         3128.6           25.18 
         3128.9           24.14 
         3129.2           24.13 
         3129.5           25.29 
         3129.8           27.67 
         3130.1           31.38 
         3130.4           36.52 
         3130.7           42.96 
           3131              50 
         3131.3           56.33 
         3131.6           60.38 
         3131.9           61.07 
         3132.2           58.39 
         3132.5           53.45 
         3132.8           47.78 
         3133.1           42.81 
         3133.4           39.48 
         3133.7           38.34 
           3134           39.53 
         3134.3           42.55 
         3134.6           46.26 
         3134.9           49.11 
         3135.2           49.88 
         3135.5           48.37 
         3135.8           45.45 
         3136.1           42.61 
         3136.4           41.29 
         3136.7           42.33 
           3137           45.86 
         3137.3            51.2 
         3137.6           57.11 
         3137.9           62.16 
         3138.2           65.31 
         3138.5           66.37 
         3138.8           66.13 
         3139.1           65.85 
         3139.4           66.66 
         3139.7            69.2 
           3140           73.21 
         3140.3           77.76 
         3140.6           81.49 
         3140.9           83.27 
         3141.2           82.81 
         3141.5           80.81 
         3141.8            78.4 
         3142.1           76.31 
         3142.4           74.43 
         3142.7           72.21 
           3143           69.33 
         3143.3           66.13 
         3143.6           63.21 
         3143.9           60.83 
         3144.2           58.71 
         3144.5           56.26 
         3144.8           53.08 
         3145.1           49.22 
         3145.4           45.15 
         3145.7           41.43 
           3146           38.63 
         3146.3           37.34 
         3146.6           38.09 
         3146.9           41.19 
         3147.2           46.67 
         3147.5           54.21 
         3147.8           63.14 
         3148.1           72.41 
         3148.4           80.56 
         3148.7           86.02 
           3149           87.81 
         3149.3           86.07 
         3149.6           81.93 
         3149.9           76.82 
         3150.2            71.6 
         3150.5           66.33 
         3150.8           60.65 
         3151.1           54.48 
         3151.4           48.27 
         3151.7           42.91 
           3152           39.16 
         3152.3           37.33 
         3152.6           37.15 
         3152.9           38.08 
         3153.2           39.74 
         3153.5           42.16 
         3153.8           45.64 
         3154.1           50.23 
         3154.4           55.29 
         3154.7           59.48 
           3155           61.45 
         3155.3           60.61 
         3155.6           57.63 
         3155.9           54.05 
         3156.2           51.53 
         3156.5            51.1 
         3156.8           52.93 
         3157.1           56.44 
         3157.4           60.72 
         3157.7           64.95 
           3158            68.6 
         3158.3           71.41 
         3158.6           73.19 
         3158.9           73.58 
         3159.2           72.21 
         3159.5           69.02 
         3159.8           64.69 
         3160.1           60.65 
         3160.4           58.58 
         3160.7           59.44 
           3161           62.95 
         3161.3           67.84 
         3161.6            72.6 
         3161.9           76.41 
         3162.2            79.3 
         3162.5           81.77 
         3162.8           84.11 
         3163.1           86.36 
         3163.4           88.43 
         3163.7           90.44 
           3164           92.61 
         3164.3           94.87 
         3164.6           96.86 
         3164.9           98.25 
         3165.2           99.24 
         3165.5           100.7 
         3165.8           103.9 
         3166.1           110.2 
         3166.4           119.9 
         3166.7             132 
           3167           144.2 
         3167.3           153.5 
         3167.6             157 
         3167.9           154.3 
         3168.2           146.8 
         3168.5             138 
         3168.8           131.5 
         3169.1           129.1 
         3169.4           129.7 
         3169.7           130.5 
           3170           128.8 
         3170.3           123.8 
         3170.6           116.5 
         3170.9           109.3 
         3171.2           104.5 
         3171.5           102.6 
         3171.8           102.8 
         3172.1           103.4 
         3172.4           102.7 
         3172.7           100.6 
           3173           98.23 
         3173.3           97.44 
         3173.6             100 
         3173.9           106.8 
         3174.2             117 
         3174.5             129 
         3174.8           140.6 
         3175.1           149.9 
         3175.4           155.2 
         3175.7           155.8 
           3176           151.4 
         3176.3           142.9 
         3176.6           132.2 
         3176.9           121.6 
         3177.2           113.7 
         3177.5           110.5 
         3177.8           112.4 
         3178.1             118 
