# Granada HRES Library
# atmosphere = Phoenix  (atmosphere model used)
# feh = 0  (value for [Fe/H] for the model.)
# logg = 3.5 log(cm/s2) (value for Log(G) for the model.)
# teff = 3500 K (value for the effective temperature for the model. Temperatures are given in K)
#
# column 1: WAVELENGTH (ANGSTROM), Wavelength in Angstrom
# column 2: FLUX (ERG/CM2/S/A), Flux in erg/cm2/s/A
         3000.2           315.2 
         3000.5           280.3 
         3000.8           257.9 
         3001.1           246.5 
         3001.4           241.3 
         3001.7             237 
           3002           231.2 
         3002.3             226 
         3002.6           227.8 
         3002.9           244.9 
         3003.2           283.6 
         3003.5           345.7 
         3003.8           427.3 
         3004.1           519.4 
         3004.4           610.2 
         3004.7             688 
           3005           742.8 
         3005.3           767.9 
         3005.6           760.3 
         3005.9             722 
         3006.2           660.3 
         3006.5           586.4 
         3006.8           513.2 
         3007.1           451.9 
         3007.4           409.8 
         3007.7           390.3 
           3008           393.3 
         3008.3           417.6 
         3008.6           462.7 
         3008.9           529.7 
         3009.2           619.9 
         3009.5           730.8 
         3009.8             851 
         3010.1           959.7 
         3010.4            1035 
         3010.7            1061 
           3011            1040 
         3011.3           988.1 
         3011.6           929.7 
         3011.9             884 
         3012.2           859.2 
         3012.5           851.6 
         3012.8             852 
         3013.1           852.5 
         3013.4           849.4 
         3013.7           842.9 
           3014           834.1 
         3014.3           823.6 
         3014.6           812.7 
         3014.9           803.6 
         3015.2           797.6 
         3015.5           794.4 
         3015.8           791.5 
         3016.1           784.9 
         3016.4           770.9 
         3016.7           746.7 
           3017             713 
         3017.3           673.5 
         3017.6           633.2 
         3017.9           594.7 
         3018.2           557.2 
         3018.5             517 
         3018.8           470.8 
         3019.1           417.8 
         3019.4           360.4 
         3019.7           303.1 
           3020           251.4 
         3020.3           212.4 
         3020.6           192.9 
         3020.9           197.9 
         3021.2           229.2 
         3021.5           284.1 
         3021.8           354.9 
         3022.1           430.2 
         3022.4           497.4 
         3022.7           544.6 
           3023           564.3 
         3023.3           555.2 
         3023.6           523.8 
         3023.9           481.3 
         3024.2           439.9 
         3024.5           406.9 
         3024.8           384.1 
         3025.1           369.9 
         3025.4           363.7 
         3025.7           367.4 
           3026           383.3 
         3026.3           410.9 
         3026.6           444.4 
         3026.9           475.9 
         3027.2           499.9 
         3027.5           517.4 
         3027.8           536.5 
         3028.1           567.9 
         3028.4           618.9 
         3028.7           688.8 
           3029           767.2 
         3029.3           838.7 
         3029.6           888.8 
         3029.9             911 
         3030.2           909.9 
         3030.5           899.8 
         3030.8           900.1 
         3031.1           927.5 
         3031.4             988 
         3031.7            1072 
           3032            1152 
         3032.3            1196 
         3032.6            1180 
         3032.9            1103 
         3033.2             983 
         3033.5           854.9 
         3033.8             753 
         3034.1           699.3 
         3034.4           697.9 
         3034.7           735.1 
           3035           786.1 
         3035.3           825.2 
         3035.6           833.6 
         3035.9           804.6 
         3036.2           743.9 
         3036.5           666.8 
         3036.8           593.3 
         3037.1           544.1 
         3037.4           533.2 
         3037.7           564.3 
           3038           628.7 
         3038.3           709.9 
         3038.6           790.3 
         3038.9             858 
         3039.2           907.2 
         3039.5           935.9 
         3039.8           941.6 
         3040.1           921.7 
         3040.4           876.2 
         3040.7           812.1 
           3041           744.5 
         3041.3           691.9 
         3041.6           671.2 
         3041.9           690.2 
         3042.2           744.5 
         3042.5           818.6 
         3042.8           892.9 
         3043.1           950.5 
         3043.4           983.9 
         3043.7           995.2 
           3044             993 
         3044.3             988 
         3044.6           988.5 
         3044.9             998 
         3045.2            1013 
         3045.5            1024 
         3045.8            1015 
         3046.1           974.4 
         3046.4           898.1 
         3046.7           793.9 
           3047           680.2 
         3047.3           580.1 
         3047.6           514.1 
         3047.9           494.2 
         3048.2           522.7 
         3048.5           591.9 
         3048.8           685.7 
         3049.1           780.8 
         3049.4           852.8 
         3049.7           884.5 
           3050           873.1 
         3050.3           831.5 
         3050.6           781.6 
         3050.9           743.5 
         3051.2           727.9 
         3051.5           734.3 
         3051.8             754 
         3052.1           774.7 
         3052.4           784.1 
         3052.7           773.5 
           3053           740.8 
         3053.3           691.5 
         3053.6           637.9 
         3053.9           593.7 
         3054.2           569.2 
         3054.5           567.1 
         3054.8           582.2 
         3055.1           603.6 
         3055.4           619.9 
         3055.7           623.6 
           3056           613.6 
         3056.3           594.3 
         3056.6           572.6 
         3056.9           554.7 
         3057.2           543.9 
         3057.5           539.2 
         3057.8           536.5 
         3058.1           532.1 
         3058.4           525.9 
         3058.7           524.5 
           3059           538.7 
         3059.3           578.3 
         3059.6           646.3 
         3059.9           737.2 
         3060.2           838.7 
         3060.5             936 
         3060.8            1017 
         3061.1            1073 
         3061.4            1101 
         3061.7            1101 
           3062            1069 
         3062.3            1002 
         3062.6           899.5 
         3062.9             769 
         3063.2           626.9 
         3063.5           494.3 
         3063.8           390.3 
         3064.1           324.2 
         3064.4           294.4 
         3064.7           290.8 
           3065           301.2 
         3065.3             316 
         3065.6           331.5 
         3065.9           348.1 
         3066.2           367.7 
         3066.5             390 
         3066.8           412.4 
         3067.1           431.4 
         3067.4           446.2 
         3067.7           458.9 
           3068           472.6 
         3068.3             488 
         3068.6           501.4 
         3068.9           506.6 
         3069.2           499.1 
         3069.5           480.4 
         3069.8           459.9 
         3070.1           452.1 
         3070.4           470.2 
         3070.7           520.5 
           3071           599.9 
         3071.3           698.2 
         3071.6           803.5 
         3071.9           906.8 
         3072.2            1002 
         3072.5            1085 
         3072.8            1148 
         3073.1            1188 
         3073.4            1204 
         3073.7            1204 
           3074            1193 
         3074.3            1177 
         3074.6            1160 
         3074.9            1149 
         3075.2            1157 
         3075.5            1194 
         3075.8            1263 
         3076.1            1353 
         3076.4            1436 
         3076.7            1488 
           3077            1494 
         3077.3            1458 
         3077.6            1396 
         3077.9            1329 
         3078.2            1269 
         3078.5            1218 
         3078.8            1166 
         3079.1            1103 
         3079.4            1020 
         3079.7           919.5 
           3080           808.6 
         3080.3           697.1 
         3080.6           593.5 
         3080.9           503.6 
         3081.2           431.9 
         3081.5           382.1 
         3081.8           355.9 
         3082.1           351.6 
         3082.4             363 
         3082.7           381.7 
           3083           402.1 
         3083.3           423.4 
         3083.6           449.4 
         3083.9           484.5 
         3084.2           530.8 
         3084.5           586.9 
         3084.8           649.2 
         3085.1           712.1 
         3085.4           768.1 
         3085.7           810.5 
           3086           838.4 
         3086.3           861.5 
         3086.6             899 
         3086.9           971.3 
         3087.2            1089 
         3087.5            1242 
         3087.8            1401 
         3088.1            1523 
         3088.4            1570 
         3088.7            1521 
           3089            1381 
         3089.3            1180 
         3089.6           960.4 
         3089.9           757.9 
         3090.2           595.8 
         3090.5           480.4 
         3090.8           405.4 
         3091.1           358.9 
         3091.4           328.9 
         3091.7           307.7 
           3092           293.1 
         3092.3           288.8 
         3092.6           301.2 
         3092.9           335.9 
         3093.2           392.7 
         3093.5           464.6 
         3093.8           539.4 
         3094.1           604.5 
         3094.4           650.2 
         3094.7           671.9 
           3095             670 
         3095.3           650.3 
         3095.6           624.7 
         3095.9           611.5 
         3096.2           631.9 
         3096.5           701.2 
         3096.8           819.4 
         3097.1           964.9 
         3097.4            1099 
         3097.7            1177 
           3098            1173 
         3098.3            1082 
         3098.6           931.9 
         3098.9           762.1 
         3099.2           614.1 
         3099.5           515.5 
         3099.8           474.3 
         3100.1           480.1 
         3100.4           511.5 
         3100.7           546.7 
           3101           573.2 
         3101.3           616.3 
         3101.6           663.2 
         3101.9           742.7 
         3102.2           853.9 
         3102.5           985.1 
         3102.8            1119 
         3103.1            1238 
         3103.4            1332 
         3103.7            1391 
           3104            1407 
         3104.3            1371 
         3104.6            1283 
         3104.9            1152 
         3105.2           996.9 
         3105.5             847 
         3105.8           726.1 
         3106.1           648.1 
         3106.4           616.5 
         3106.7           626.1 
           3107           666.9 
         3107.3           724.9 
         3107.6           783.1 
         3107.9           826.2 
         3108.2           845.9 
         3108.5           846.1 
         3108.8           842.5 
         3109.1           856.7 
         3109.4           907.2 
         3109.7            1002 
           3110            1135 
         3110.3            1284 
         3110.6            1418 
         3110.9            1506 
         3111.2            1524 
         3111.5            1469 
         3111.8            1357 
         3112.1            1219 
         3112.4            1085 
         3112.7           984.6 
           3113           933.3 
         3113.3           941.7 
         3113.6            1014 
         3113.9            1152 
         3114.2            1343 
         3114.5            1569 
         3114.8            1793 
         3115.1            1973 
         3115.4            2065 
         3115.7            2046 
           3116            1923 
         3116.3            1736 
         3116.6            1551 
         3116.9            1434 
         3117.2            1430 
         3117.5            1548 
         3117.8            1752 
         3118.1            1987 
         3118.4            2193 
         3118.7            2333 
           3119            2394 
         3119.3            2396 
         3119.6            2376 
         3119.9            2359 
         3120.2            2346 
         3120.5            2308 
         3120.8            2201 
         3121.1            2002 
         3121.4            1726 
         3121.7            1430 
           3122            1185 
         3122.3            1043 
         3122.6            1015 
         3122.9            1076 
         3123.2            1173 
         3123.5            1262 
         3123.8            1317 
         3124.1            1343 
         3124.4            1361 
         3124.7            1394 
           3125            1451 
         3125.3            1522 
         3125.6            1590 
         3125.9            1639 
         3126.2            1666 
         3126.5            1672 
         3126.8            1654 
         3127.1            1602 
         3127.4            1509 
         3127.7            1383 
           3128            1239 
         3128.3            1104 
         3128.6           996.4 
         3128.9           929.2 
         3129.2           908.4 
         3129.5           937.7 
         3129.8            1021 
         3130.1            1160 
         3130.4            1357 
         3130.7            1599 
           3131            1859 
         3131.3            2085 
         3131.6            2224 
         3131.9            2240 
         3132.2            2133 
         3132.5            1943 
         3132.8            1723 
         3133.1            1524 
         3133.4            1380 
         3133.7            1306 
           3134            1308 
         3134.3            1372 
         3134.6            1464 
         3134.9            1534 
         3135.2            1549 
         3135.5            1501 
         3135.8            1417 
         3136.1            1345 
         3136.4            1334 
         3136.7            1410 
           3137            1572 
         3137.3            1794 
         3137.6            2023 
         3137.9            2206 
         3138.2            2303 
         3138.5            2304 
         3138.8            2232 
         3139.1            2131 
         3139.4            2042 
         3139.7            1998 
           3140            2007 
         3140.3            2057 
         3140.6            2128 
         3140.9            2190 
         3141.2            2228 
         3141.5            2243 
         3141.8            2243 
         3142.1            2228 
         3142.4            2185 
         3142.7            2100 
           3143            1976 
         3143.3            1840 
         3143.6            1725 
         3143.9            1649 
         3144.2            1605 
         3144.5            1569 
         3144.8            1518 
         3145.1            1444 
         3145.4            1350 
         3145.7            1245 
           3146            1143 
         3146.3            1068 
         3146.6            1048 
         3146.9            1118 
         3147.2            1301 
         3147.5            1601 
         3147.8            1988 
         3148.1            2396 
         3148.4            2740 
         3148.7            2935 
           3149            2936 
         3149.3            2753 
         3149.6            2451 
         3149.9            2116 
         3150.2            1813 
         3150.5            1579 
         3150.8            1412 
         3151.1            1300 
         3151.4            1232 
         3151.7            1203 
           3152            1214 
         3152.3            1259 
         3152.6            1325 
         3152.9            1394 
         3153.2            1456 
         3153.5            1516 
         3153.8            1589 
         3154.1            1691 
         3154.4            1816 
         3154.7            1933 
           3155            2002 
         3155.3            1999 
         3155.6            1936 
         3155.9            1858 
         3156.2            1814 
         3156.5            1837 
         3156.8            1931 
         3157.1            2075 
         3157.4            2238 
         3157.7            2395 
           3158            2540 
         3158.3            2672 
         3158.6            2789 
         3158.9            2873 
         3159.2            2897 
         3159.5            2841 
         3159.8            2714 
         3160.1            2567 
         3160.4            2470 
         3160.7            2470 
           3161            2570 
         3161.3            2735 
         3161.6            2924 
         3161.9            3121 
         3162.2            3331 
         3162.5            3557 
         3162.8            3776 
         3163.1            3949 
         3163.4            4043 
         3163.7            4060 
           3164            4027 
         3164.3            3972 
         3164.6            3904 
         3164.9            3827 
         3165.2            3754 
         3165.5            3723 
         3165.8            3789 
         3166.1            4001 
         3166.4            4369 
         3166.7            4853 
           3167            5352 
         3167.3            5736 
         3167.6            5897 
         3167.9            5794 
         3168.2            5488 
         3168.5            5115 
         3168.8            4820 
         3169.1            4680 
         3169.4            4676 
         3169.7            4710 
           3170            4676 
         3170.3            4526 
         3170.6            4294 
         3170.9            4066 
         3171.2            3927 
         3171.5            3911 
         3171.8            3982 
         3172.1            4068 
         3172.4            4108 
         3172.7            4101 
           3173            4108 
         3173.3            4221 
         3173.6            4491 
         3173.9            4908 
         3174.2            5391 
         3174.5            5842 
         3174.8            6191 
         3175.1            6398 
         3175.4            6451 
         3175.7            6337 
           3176            6058 
         3176.3            5642 
         3176.6            5153 
         3176.9            4688 
         3177.2            4339 
         3177.5            4168 
         3177.8            4179 
         3178.1            4308 
