# Granada HRES Library
# atmosphere = Phoenix  (atmosphere model used)
# feh = 3  (value for [Fe/H] for the model.)
# logg = 3 log(cm/s2) (value for Log(G) for the model.)
# teff = 3500 K (value for the effective temperature for the model. Temperatures are given in K)
#
# column 1: WAVELENGTH (ANGSTROM), Wavelength in Angstrom
# column 2: FLUX (ERG/CM2/S/A), Flux in erg/cm2/s/A
         3000.2           228.6 
         3000.5           199.9 
         3000.8           181.8 
         3001.1           172.5 
         3001.4           168.2 
         3001.7           164.8 
           3002           159.7 
         3002.3           154.6 
         3002.6           153.7 
         3002.9           162.9 
         3003.2           186.7 
         3003.5           226.5 
         3003.8           279.8 
         3004.1           341.1 
         3004.4           402.9 
         3004.7           457.2 
           3005           497.3 
         3005.3           518.1 
         3005.6             517 
         3005.9             495 
         3006.2           456.8 
         3006.5           410.1 
         3006.8           363.4 
         3007.1           324.2 
         3007.4           297.3 
         3007.7           285.3 
           3008           288.3 
         3008.3           305.7 
         3008.6           336.8 
         3008.9           382.4 
         3009.2           443.2 
         3009.5           517.4 
         3009.8           597.2 
         3010.1           668.3 
         3010.4           714.6 
         3010.7           726.2 
           3011           704.7 
         3011.3           662.5 
         3011.6           617.1 
         3011.9           582.8 
         3012.2           565.6 
         3012.5           563.2 
         3012.8           569.5 
         3013.1           578.2 
         3013.4           585.7 
         3013.7           590.6 
           3014           592.3 
         3014.3           590.9 
         3014.6           587.2 
         3014.9           583.1 
         3015.2             580 
         3015.5           577.6 
         3015.8           574.2 
         3016.1           567.6 
         3016.4           555.6 
         3016.7             537 
           3017           512.4 
         3017.3           484.3 
         3017.6           455.8 
         3017.9           428.4 
         3018.2           401.1 
         3018.5           371.6 
         3018.8           337.3 
         3019.1           298.3 
         3019.4           256.2 
         3019.7           214.5 
           3020           177.3 
         3020.3           149.5 
         3020.6           135.8 
         3020.9           139.5 
         3021.2           161.5 
         3021.5           199.7 
         3021.8           248.3 
         3022.1             300 
         3022.4           345.8 
         3022.7             378 
           3023           391.2 
         3023.3           384.2 
         3023.6           361.2 
         3023.9             330 
         3024.2             299 
         3024.5           273.9 
         3024.8           256.6 
         3025.1           246.4 
         3025.4           242.3 
         3025.7           244.9 
           3026           255.1 
         3026.3           272.1 
         3026.6           292.3 
         3026.9           310.9 
         3027.2           324.8 
         3027.5           335.3 
         3027.8           347.2 
         3028.1           367.5 
         3028.4           400.8 
         3028.7           446.8 
           3029           499.3 
         3029.3           548.6 
         3029.6           585.9 
         3029.9           606.7 
         3030.2           613.7 
         3030.5           616.6 
         3030.8           628.7 
         3031.1           661.8 
         3031.4           719.3 
         3031.7           792.1 
           3032             859 
         3032.3           894.9 
         3032.6           881.8 
         3032.9           818.9 
         3033.2           722.7 
         3033.5           619.6 
         3033.8           535.6 
         3034.1           487.1 
         3034.4           477.2 
         3034.7           496.6 
           3035           528.7 
         3035.3           555.7 
         3035.6           564.4 
         3035.9           549.4 
         3036.2           513.4 
         3036.5           465.9 
         3036.8           420.5 
         3037.1             391 
         3037.4           387.2 
         3037.7           411.3 
           3038           456.8 
         3038.3           511.9 
         3038.6           565.3 
         3038.9           609.9 
         3039.2           643.9 
         3039.5           667.4 
         3039.8           678.5 
         3040.1           673.2 
         3040.4           649.2 
         3040.7           609.1 
           3041           562.9 
         3041.3             525 
         3041.6           508.4 
         3041.9           519.5 
         3042.2           555.1 
         3042.5           603.3 
         3042.8           648.9 
         3043.1           680.2 
         3043.4           692.6 
         3043.7           689.8 
           3044             680 
         3044.3             672 
         3044.6           671.7 
         3044.9           680.7 
         3045.2           695.5 
         3045.5           707.5 
         3045.8           706.1 
         3046.1           682.1 
         3046.4           632.1 
         3046.7           561.4 
           3047           482.7 
         3047.3           412.5 
         3047.6             365 
         3047.9             349 
         3048.2           366.2 
         3048.5           411.5 
         3048.8           473.9 
         3049.1             538 
         3049.4           587.4 
         3049.7             610 
           3050           603.2 
         3050.3           574.8 
         3050.6           538.4 
         3050.9           507.5 
         3051.2           489.8 
         3051.5           485.9 
         3051.8           491.4 
         3052.1           499.6 
         3052.4           503.2 
         3052.7           496.7 
           3053           478.2 
         3053.3           450.4 
         3053.6           419.9 
         3053.9           394.5 
         3054.2           379.9 
         3054.5           377.5 
         3054.8           384.1 
         3055.1           393.6 
         3055.4             400 
         3055.7           399.6 
           3056           392.8 
         3056.3           382.8 
         3056.6           374.2 
         3056.9           370.7 
         3057.2           373.4 
         3057.5           380.1 
         3057.8           386.7 
         3058.1           389.3 
         3058.4           387.5 
         3058.7           386.2 
           3059           393.9 
         3059.3           418.1 
         3059.6           461.5 
         3059.9           520.2 
         3060.2           585.6 
         3060.5           647.6 
         3060.8           698.1 
         3061.1           732.3 
         3061.4           748.7 
         3061.7           746.9 
           3062           725.5 
         3062.3             682 
         3062.6           615.7 
         3062.9           531.8 
         3063.2           441.4 
         3063.5           359.6 
         3063.8           298.8 
         3064.1           264.2 
         3064.4           252.7 
         3064.7           255.8 
           3065           264.4 
         3065.3           273.8 
         3065.6           284.3 
         3065.9           299.4 
         3066.2           321.9 
         3066.5           350.8 
         3066.8           381.3 
         3067.1           408.2 
         3067.4           428.8 
         3067.7           444.5 
           3068           458.4 
         3068.3           471.5 
         3068.6           480.7 
         3068.9           480.2 
         3069.2           465.4 
         3069.5           437.6 
         3069.8           404.8 
         3070.1           379.8 
         3070.4           374.5 
         3070.7           394.8 
           3071           439.4 
         3071.3           501.4 
         3071.6           572.3 
         3071.9           645.3 
         3072.2           715.8 
         3072.5           779.6 
         3072.8           832.6 
         3073.1           871.1 
         3073.4           893.9 
         3073.7           901.4 
           3074           895.4 
         3074.3           878.5 
         3074.6           855.9 
         3074.9           837.3 
         3075.2           835.9 
         3075.5           861.9 
         3075.8           916.5 
         3076.1           986.8 
         3076.4            1051 
         3076.7            1088 
           3077            1089 
         3077.3            1058 
         3077.6            1011 
         3077.9             963 
         3078.2           924.1 
         3078.5             893 
         3078.8             862 
         3079.1           821.7 
         3079.4           766.3 
         3079.7           696.2 
           3080           616.5 
         3080.3           534.1 
         3080.6           455.9 
         3080.9           387.5 
         3081.2           333.8 
         3081.5           298.3 
         3081.8           282.4 
         3082.1           283.9 
         3082.4           296.7 
         3082.7           312.9 
           3083           326.9 
         3083.3           337.9 
         3083.6           349.9 
         3083.9           368.9 
         3084.2           399.2 
         3084.5           442.2 
         3084.8           495.7 
         3085.1           553.7 
         3085.4           608.2 
         3085.7             652 
           3086             684 
         3086.3           712.1 
         3086.6           751.6 
         3086.9           817.7 
         3087.2           917.1 
         3087.5            1042 
         3087.8            1168 
         3088.1            1264 
         3088.4            1300 
         3088.7            1261 
           3089            1152 
         3089.3           996.2 
         3089.6             824 
         3089.9           663.7 
         3090.2           532.7 
         3090.5             436 
         3090.8           369.1 
         3091.1           323.5 
         3091.4             291 
         3091.7           266.4 
           3092           249.2 
         3092.3           243.1 
         3092.6           253.6 
         3092.9           285.4 
         3093.2           338.3 
         3093.5           406.7 
         3093.8           480.6 
         3094.1           549.3 
         3094.4           603.6 
         3094.7           637.4 
           3095           647.9 
         3095.3           636.9 
         3095.6           613.4 
         3095.9           593.9 
         3096.2           600.4 
         3096.5           651.6 
         3096.8           752.7 
         3097.1           887.9 
         3097.4            1022 
         3097.7            1113 
           3098            1126 
         3098.3            1053 
         3098.6           912.3 
         3098.9           742.2 
         3099.2           584.4 
         3099.5           469.5 
         3099.8           409.1 
         3100.1           396.3 
         3100.4           413.3 
         3100.7           440.9 
           3101           467.9 
         3101.3           534.2 
         3101.6           599.3 
         3101.9           697.3 
         3102.2             823 
         3102.5           959.2 
         3102.8            1085 
         3103.1            1182 
         3103.4            1247 
         3103.7            1280 
           3104            1283 
         3104.3            1254 
         3104.6            1188 
         3104.9            1084 
         3105.2           952.7 
         3105.5           813.6 
         3105.8           687.6 
         3106.1           590.6 
         3106.4           530.4 
         3106.7           507.4 
           3107           516.9 
         3107.3           549.4 
         3107.6           591.6 
         3107.9           629.5 
         3108.2           653.2 
         3108.5           660.8 
         3108.8           659.6 
         3109.1           663.3 
         3109.4           687.2 
         3109.7           742.8 
           3110           832.3 
         3110.3           945.8 
         3110.6            1061 
         3110.9            1149 
         3111.2            1183 
         3111.5            1150 
         3111.8            1059 
         3112.1           934.6 
         3112.4           807.7 
         3112.7           704.6 
           3113           642.6 
         3113.3           629.4 
         3113.6             666 
         3113.9           749.7 
         3114.2           874.3 
         3114.5            1028 
         3114.8            1190 
         3115.1            1332 
         3115.4            1424 
         3115.7            1443 
           3116            1386 
         3116.3            1278 
         3116.6            1166 
         3116.9            1095 
         3117.2            1103 
         3117.5            1194 
         3117.8            1342 
         3118.1            1509 
         3118.4            1650 
         3118.7            1737 
           3119            1763 
         3119.3            1744 
         3119.6            1707 
         3119.9            1676 
         3120.2            1654 
         3120.5            1624 
         3120.8            1555 
         3121.1            1429 
         3121.4            1257 
         3121.7            1076 
           3122           940.7 
         3122.3           886.5 
         3122.6           917.9 
         3122.9            1006 
         3123.2            1105 
         3123.5            1174 
         3123.8            1196 
         3124.1            1182 
         3124.4            1162 
         3124.7            1160 
           3125            1187 
         3125.3            1233 
         3125.6            1278 
         3125.9            1305 
         3126.2            1312 
         3126.5            1301 
         3126.8            1276 
         3127.1            1231 
         3127.4            1161 
         3127.7            1067 
           3128           961.7 
         3128.3           859.3 
         3128.6           775.4 
         3128.9           720.5 
         3129.2             699 
         3129.5           712.1 
         3129.8           759.9 
         3130.1           844.6 
         3130.4           968.9 
         3130.7            1130 
           3131            1312 
         3131.3            1481 
         3131.6            1599 
         3131.9            1635 
         3132.2            1585 
         3132.5            1474 
         3132.8            1338 
         3133.1            1208 
         3133.4            1109 
         3133.7            1055 
           3134            1049 
         3134.3            1083 
         3134.6            1134 
         3134.9            1171 
         3135.2            1169 
         3135.5            1126 
         3135.8            1064 
         3136.1            1016 
         3136.4            1010 
         3136.7            1061 
           3137            1164 
         3137.3            1299 
         3137.6            1436 
         3137.9            1542 
         3138.2            1596 
         3138.5            1595 
         3138.8            1555 
         3139.1            1506 
         3139.4            1479 
         3139.7            1496 
           3140            1562 
         3140.3            1664 
         3140.6            1777 
         3140.9            1872 
         3141.2            1935 
         3141.5            1969 
         3141.8            1983 
         3142.1            1979 
         3142.4            1941 
         3142.7            1852 
           3143            1715 
         3143.3            1552 
         3143.6            1399 
         3143.9            1278 
         3144.2            1191 
         3144.5            1125 
         3144.8            1066 
         3145.1            1005 
         3145.4           940.2 
         3145.7             879 
           3146           830.2 
         3146.3           807.4 
         3146.6           827.4 
         3146.9           906.6 
         3147.2            1056 
         3147.5            1276 
         3147.8            1550 
         3148.1            1842 
         3148.4            2098 
         3148.7            2265 
           3149            2308 
         3149.3            2229 
         3149.6            2063 
         3149.9            1857 
         3150.2            1653 
         3150.5            1471 
         3150.8            1313 
         3151.1            1177 
         3151.4            1066 
         3151.7           984.9 
           3152             939 
         3152.3             927 
         3152.6           941.1 
         3152.9           970.3 
         3153.2            1008 
         3153.5            1055 
         3153.8            1121 
         3154.1            1211 
         3154.4            1316 
         3154.7            1410 
           3155            1462 
         3155.3            1458 
         3155.6            1408 
         3155.9            1344 
         3156.2            1300 
         3156.5            1297 
         3156.8            1335 
         3157.1            1399 
         3157.4            1470 
         3157.7            1536 
           3158            1597 
         3158.3            1655 
         3158.6            1714 
         3158.9            1763 
         3159.2            1783 
         3159.5            1763 
         3159.8            1707 
         3160.1            1648 
         3160.4            1621 
         3160.7            1649 
           3161            1724 
         3161.3            1819 
         3161.6            1904 
         3161.9            1973 
         3162.2            2041 
         3162.5            2125 
         3162.8            2229 
         3163.1            2337 
         3163.4            2434 
         3163.7            2511 
           3164            2565 
         3164.3            2593 
         3164.6            2586 
         3164.9            2540 
         3165.2            2466 
         3165.5            2395 
         3165.8            2370 
         3166.1            2431 
         3166.4            2597 
         3166.7            2855 
           3167            3152 
         3167.3            3410 
         3167.6            3551 
         3167.9            3535 
         3168.2            3381 
         3168.5            3160 
         3168.8            2963 
         3169.1            2846 
         3169.4            2804 
         3169.7            2791 
           3170            2750 
         3170.3            2654 
         3170.6            2520 
         3170.9            2394 
         3171.2            2320 
         3171.5            2310 
         3171.8            2346 
         3172.1            2387 
         3172.4            2405 
         3172.7            2402 
           3173            2409 
         3173.3            2470 
         3173.6            2614 
         3173.9            2830 
         3174.2            3076 
         3174.5            3304 
         3174.8            3476 
         3175.1            3575 
         3175.4            3596 
         3175.7            3535 
           3176            3395 
         3176.3            3193 
         3176.6            2960 
         3176.9            2739 
         3177.2            2573 
         3177.5            2489 
         3177.8            2488 
         3178.1            2541 
