# Granada HRES Library
# atmosphere = Phoenix  (atmosphere model used)
# feh = 0  (value for [Fe/H] for the model.)
# logg = 1.5 log(cm/s2) (value for Log(G) for the model.)
# teff = 4000 K (value for the effective temperature for the model. Temperatures are given in K)
#
# column 1: WAVELENGTH (ANGSTROM), Wavelength in Angstrom
# column 2: FLUX (ERG/CM2/S/A), Flux in erg/cm2/s/A
         3000.2           518.8 
         3000.5           463.2 
         3000.8           428.1 
         3001.1           410.4 
         3001.4           402.9 
         3001.7           397.1 
           3002           388.8 
         3002.3           380.8 
         3002.6           383.2 
         3002.9           408.4 
         3003.2           466.3 
         3003.5           560.5 
         3003.8           686.5 
         3004.1           832.9 
         3004.4           984.2 
         3004.7            1124 
           3005            1238 
         3005.3            1312 
         3005.6            1338 
         3005.9            1312 
         3006.2            1239 
         3006.5            1130 
         3006.8            1006 
         3007.1           886.5 
         3007.4           793.2 
         3007.7           739.3 
           3008           731.7 
         3008.3           769.1 
         3008.6           845.6 
         3008.9             954 
         3009.2            1087 
         3009.5            1233 
         3009.8            1376 
         3010.1            1486 
         3010.4            1536 
         3010.7            1513 
           3011            1429 
         3011.3            1320 
         3011.6            1228 
         3011.9            1185 
         3012.2            1195 
         3012.5            1240 
         3012.8            1292 
         3013.1            1323 
         3013.4            1323 
         3013.7            1296 
           3014            1257 
         3014.3            1224 
         3014.6            1210 
         3014.9            1219 
         3015.2            1248 
         3015.5            1284 
         3015.8            1316 
         3016.1            1336 
         3016.4            1337 
         3016.7            1314 
           3017            1267 
         3017.3            1198 
         3017.6            1117 
         3017.9            1032 
         3018.2           946.7 
         3018.5           859.1 
         3018.8           767.3 
         3019.1             671 
         3019.4           573.5 
         3019.7           481.2 
           3020           401.9 
         3020.3           344.4 
         3020.6           317.3 
         3020.9           326.2 
         3021.2           372.8 
         3021.5           452.2 
         3021.8           553.7 
         3022.1           661.7 
         3022.4           758.8 
         3022.7           828.6 
           3023           860.3 
         3023.3             852 
         3023.6             812 
         3023.9           756.2 
         3024.2           700.5 
         3024.5           655.3 
         3024.8           622.6 
         3025.1           599.9 
         3025.4           586.9 
         3025.7             588 
           3026           609.1 
         3026.3           652.6 
         3026.6           713.6 
         3026.9             782 
         3027.2           847.5 
         3027.5           905.5 
         3027.8           959.1 
         3028.1            1017 
         3028.4            1088 
         3028.7            1174 
           3029            1266 
         3029.3            1347 
         3029.6            1398 
         3029.9            1411 
         3030.2            1394 
         3030.5            1375 
         3030.8            1391 
         3031.1            1479 
         3031.4            1651 
         3031.7            1882 
           3032            2113 
         3032.3            2275 
         3032.6            2314 
         3032.9            2222 
         3033.2            2034 
         3033.5            1808 
         3033.8            1602 
         3034.1            1456 
         3034.4            1380 
         3034.7            1364 
           3035            1376 
         3035.3            1382 
         3035.6            1355 
         3035.9            1284 
         3036.2            1174 
         3036.5            1045 
         3036.8             922 
         3037.1           832.9 
         3037.4           795.9 
         3037.7           815.9 
           3038           883.2 
         3038.3           978.9 
         3038.6            1085 
         3038.9            1191 
         3039.2            1293 
         3039.5            1390 
         3039.8            1475 
         3040.1            1539 
         3040.4            1569 
         3040.7            1561 
           3041            1525 
         3041.3            1481 
         3041.6            1457 
         3041.9            1474 
         3042.2            1538 
         3042.5            1633 
         3042.8            1728 
         3043.1            1798 
         3043.4            1832 
         3043.7            1839 
           3044            1839 
         3044.3            1852 
         3044.6            1884 
         3044.9            1928 
         3045.2            1963 
         3045.5            1963 
         3045.8            1902 
         3046.1            1770 
         3046.4            1574 
         3046.7            1343 
           3047            1114 
         3047.3           926.2 
         3047.6           807.9 
         3047.9           771.7 
         3048.2           815.1 
         3048.5           922.8 
         3048.8            1068 
         3049.1            1217 
         3049.4            1332 
         3049.7            1387 
           3050            1377 
         3050.3            1317 
         3050.6            1239 
         3050.9            1173 
         3051.2            1138 
         3051.5            1136 
         3051.8            1157 
         3052.1            1184 
         3052.4            1201 
         3052.7            1195 
           3053            1163 
         3053.3            1114 
         3053.6            1061 
         3053.9            1019 
         3054.2           994.1 
         3054.5           986.6 
         3054.8           988.7 
         3055.1           990.4 
         3055.4           983.4 
         3055.7             964 
           3056             934 
         3056.3           899.3 
         3056.6           867.3 
         3056.9             844 
         3057.2           831.6 
         3057.5           826.6 
         3057.8           821.5 
         3058.1             809 
         3058.4           788.7 
         3058.7             772 
           3059           779.7 
         3059.3           833.7 
         3059.6           946.7 
         3059.9            1115 
         3060.2            1319 
         3060.5            1526 
         3060.8            1704 
         3061.1            1831 
         3061.4            1898 
         3061.7            1905 
           3062            1859 
         3062.3            1763 
         3062.6            1624 
         3062.9            1456 
         3063.2            1286 
         3063.5            1146 
         3063.8            1060 
         3064.1            1032 
         3064.4            1045 
         3064.7            1073 
           3065            1090 
         3065.3            1087 
         3065.6            1073 
         3065.9            1065 
         3066.2            1080 
         3066.5            1124 
         3066.8            1193 
         3067.1            1283 
         3067.4            1395 
         3067.7            1538 
           3068            1715 
         3068.3            1912 
         3068.6            2093 
         3068.9            2208 
         3069.2            2222 
         3069.5            2131 
         3069.8            1967 
         3070.1            1790 
         3070.4            1655 
         3070.7            1598 
           3071            1632 
         3071.3            1747 
         3071.6            1920 
         3071.9            2126 
         3072.2            2332 
         3072.5            2509 
         3072.8            2628 
         3073.1            2679 
         3073.4            2664 
         3073.7            2603 
           3074            2514 
         3074.3            2415 
         3074.6            2325 
         3074.9            2273 
         3075.2            2292 
         3075.5            2409 
         3075.8            2616 
         3076.1            2861 
         3076.4            3063 
         3076.7            3147 
           3077            3085 
         3077.3            2904 
         3077.6            2667 
         3077.9            2439 
         3078.2            2262 
         3078.5            2145 
         3078.8            2068 
         3079.1            2003 
         3079.4            1924 
         3079.7            1819 
           3080            1688 
         3080.3            1542 
         3080.6            1397 
         3080.9            1274 
         3081.2            1193 
         3081.5            1167 
         3081.8            1198 
         3082.1            1273 
         3082.4            1361 
         3082.7            1430 
           3083            1461 
         3083.3            1458 
         3083.6            1450 
         3083.9            1476 
         3084.2            1569 
         3084.5            1739 
         3084.8            1973 
         3085.1            2233 
         3085.4            2477 
         3085.7            2675 
           3086            2824 
         3086.3            2946 
         3086.6            3073 
         3086.9            3223 
         3087.2            3396 
         3087.5            3574 
         3087.8            3718 
         3088.1            3777 
         3088.4            3702 
         3088.7            3476 
           3089            3131 
         3089.3            2747 
         3089.6            2411 
         3089.9            2173 
         3090.2            2027 
         3090.5            1924 
         3090.8            1808 
         3091.1            1649 
         3091.4            1455 
         3091.7            1258 
           3092            1100 
         3092.3            1014 
         3092.6            1020 
         3092.9            1116 
         3093.2            1281 
         3093.5            1479 
         3093.8            1668 
         3094.1            1820 
         3094.4            1919 
         3094.7            1966 
           3095            1971 
         3095.3            1947 
         3095.6            1911 
         3095.9            1893 
         3096.2            1939 
         3096.5            2098 
         3096.8            2405 
         3097.1            2845 
         3097.4            3334 
         3097.7            3740 
           3098            3924 
         3098.3            3807 
         3098.6            3408 
         3098.9            2836 
         3099.2            2233 
         3099.5            1724 
         3099.8            1374 
         3100.1            1183 
         3100.4            1112 
         3100.7            1115 
           3101            1170 
         3101.3            1512 
         3101.6            1889 
         3101.9            2430 
         3102.2            3087 
         3102.5            3759 
         3102.8            4323 
         3103.1            4701 
         3103.4            4885 
         3103.7            4925 
           3104            4880 
         3104.3            4762 
         3104.6            4538 
         3104.9            4167 
         3105.2            3654 
         3105.5            3063 
         3105.8            2489 
         3106.1            2021 
         3106.4            1709 
         3106.7            1563 
           3107            1568 
         3107.3            1694 
         3107.6            1903 
         3107.9            2153 
         3108.2            2394 
         3108.5            2578 
         3108.8            2670 
         3109.1            2671 
         3109.4            2618 
         3109.7            2575 
           3110            2606 
         3110.3            2737 
         3110.6            2944 
         3110.9            3143 
         3111.2            3243 
         3111.5            3181 
         3111.8            2957 
         3112.1            2632 
         3112.4            2296 
         3112.7            2033 
           3113            1902 
         3113.3            1924 
         3113.6            2111 
         3113.9            2460 
         3114.2            2967 
         3114.5            3610 
         3114.8            4336 
         3115.1            5039 
         3115.4            5569 
         3115.7            5788 
           3116            5626 
         3116.3            5133 
         3116.6            4464 
         3116.9            3813 
         3117.2            3337 
         3117.5            3102 
         3117.8            3080 
         3118.1            3185 
         3118.4            3318 
         3118.7            3404 
           3119            3416 
         3119.3            3375 
         3119.6            3331 
         3119.9            3328 
         3120.2            3378 
         3120.5            3445 
         3120.8            3469 
         3121.1            3419 
         3121.4            3326 
         3121.7            3288 
           3122            3425 
         3122.3            3808 
         3122.6            4413 
         3122.9            5106 
         3123.2            5703 
         3123.5            6050 
         3123.8            6105 
         3124.1            5948 
         3124.4            5737 
         3124.7            5607 
           3125            5604 
         3125.3            5675 
         3125.6            5717 
         3125.9            5652 
         3126.2            5474 
         3126.5            5226 
         3126.8            4962 
         3127.1            4701 
         3127.4            4426 
         3127.7            4113 
           3128            3751 
         3128.3            3363 
         3128.6            2992 
         3128.9            2685 
         3129.2            2472 
         3129.5            2354 
         3129.8            2323 
         3130.1            2382 
         3130.4            2548 
         3130.7            2840 
           3131            3244 
         3131.3            3693 
         3131.6            4074 
         3131.9            4280 
         3132.2            4253 
         3132.5            4013 
         3132.8            3653 
         3133.1            3298 
         3133.4            3070 
         3133.7            3049 
           3134            3246 
         3134.3            3592 
         3134.6            3949 
         3134.9            4169 
         3135.2            4165 
         3135.5            3955 
         3135.8            3646 
         3136.1            3378 
         3136.4            3262 
         3136.7            3348 
           3137            3631 
         3137.3            4061 
         3137.6            4569 
         3137.9            5069 
         3138.2            5482 
         3138.5            5749 
         3138.8            5850 
         3139.1            5812 
         3139.4            5713 
         3139.7            5654 
           3140            5722 
         3140.3            5938 
         3140.6            6245 
         3140.9            6551 
         3141.2            6781 
         3141.5            6924 
         3141.8            6990 
         3142.1            6964 
         3142.4            6784 
         3142.7            6390 
           3143            5789 
         3143.3            5077 
         3143.6            4389 
         3143.9            3828 
         3144.2            3422 
         3144.5            3143 
         3144.8            2949 
         3145.1            2817 
         3145.4            2748 
         3145.7            2757 
           3146            2857 
         3146.3            3046 
         3146.6            3314 
         3146.9            3639 
         3147.2            4020 
         3147.5            4490 
         3147.8            5119 
         3148.1            5972 
         3148.4            7049 
         3148.7            8261 
           3149            9446 
         3149.3           10430 
         3149.6           11070 
         3149.9           11260 
         3150.2           10950 
         3150.5           10130 
         3150.8            8917 
         3151.1            7508 
         3151.4            6129 
         3151.7            4954 
           3152            4047 
         3152.3            3393 
         3152.6            2934 
         3152.9            2625 
         3153.2            2456 
         3153.5            2446 
         3153.8            2620 
         3154.1            2973 
         3154.4            3446 
         3154.7            3930 
           3155            4310 
         3155.3            4517 
         3155.6            4550 
         3155.9            4462 
         3156.2            4317 
         3156.5            4158 
         3156.8            4010 
         3157.1            3889 
         3157.4            3822 
         3157.7            3847 
           3158            4000 
         3158.3            4296 
         3158.6            4705 
         3158.9            5136 
         3159.2            5456 
         3159.5            5545 
         3159.8            5356 
         3160.1            4950 
         3160.4            4468 
         3160.7            4065 
           3161            3861 
         3161.3            3935 
         3161.6            4334 
         3161.9            5089 
         3162.2            6167 
         3162.5            7431 
         3162.8            8633 
         3163.1            9496 
         3163.4            9834 
         3163.7            9634 
           3164            9032 
         3164.3            8221 
         3164.6            7361 
         3164.9            6564 
         3165.2            5908 
         3165.5            5467 
         3165.8            5309 
         3166.1            5485 
         3166.4            5997 
         3166.7            6781 
           3167            7693 
         3167.3            8521 
         3167.6            9047 
         3167.9            9141 
         3168.2            8825 
         3168.5            8280 
         3168.8            7743 
         3169.1            7393 
         3169.4            7277 
         3169.7            7333 
           3170            7469 
         3170.3            7642 
         3170.6            7898 
         3170.9            8330 
         3171.2            9003 
         3171.5            9872 
         3171.8           10760 
         3172.1           11470 
         3172.4           11910 
         3172.7           12210 
           3173           12680 
         3173.3           13620 
         3173.6           15060 
         3173.9           16730 
         3174.2           18230 
         3174.5           19200 
         3174.8           19610 
         3175.1           19600 
         3175.4           19320 
         3175.7           18770 
           3176           17860 
         3176.3           16560 
         3176.6           14970 
         3176.9           13320 
         3177.2           11880 
         3177.5           10830 
         3177.8           10170 
         3178.1            9768 
