# Granada HRES Library
# atmosphere = Spectrum  (atmosphere model used)
# feh = -5  (value for [Fe/H] for the model.)
# logg = 3 log(cm/s2) (value for Log(G) for the model.)
# teff = 5250 K (value for the effective temperature for the model. Temperatures are given in K)
#
# column 1: WAVELENGTH (ANGSTROM), Wavelength in Angstrom
# column 2: FLUX (ERG/CM2/S/A), Flux in erg/cm2/s/A
         3000.2          446600 
         3000.5          454400 
         3000.8          464700 
         3001.1          477200 
         3001.4          491200 
         3001.7          508200 
           3002          530900 
         3002.3          564100 
         3002.6          614300 
         3002.9          687000 
         3003.2          786000 
         3003.5          910400 
         3003.8        1.054e+6 
         3004.1        1.207e+6 
         3004.4        1.354e+6 
         3004.7        1.479e+6 
           3005        1.571e+6 
         3005.3        1.619e+6 
         3005.6         1.62e+6 
         3005.9        1.575e+6 
         3006.2        1.491e+6 
         3006.5        1.381e+6 
         3006.8        1.258e+6 
         3007.1        1.139e+6 
         3007.4        1.039e+6 
         3007.7          968400 
           3008          936600 
         3008.3          947000 
         3008.6          999200 
         3008.9        1.088e+6 
         3009.2        1.205e+6 
         3009.5        1.338e+6 
         3009.8        1.469e+6 
         3010.1        1.585e+6 
         3010.4         1.67e+6 
         3010.7        1.718e+6 
           3011        1.728e+6 
         3011.3        1.707e+6 
         3011.6        1.669e+6 
         3011.9        1.627e+6 
         3012.2        1.591e+6 
         3012.5        1.565e+6 
         3012.8         1.55e+6 
         3013.1        1.541e+6 
         3013.4        1.534e+6 
         3013.7        1.526e+6 
           3014        1.517e+6 
         3014.3        1.506e+6 
         3014.6        1.495e+6 
         3014.9        1.483e+6 
         3015.2        1.471e+6 
         3015.5        1.456e+6 
         3015.8        1.436e+6 
         3016.1        1.408e+6 
         3016.4        1.369e+6 
         3016.7        1.317e+6 
           3017        1.254e+6 
         3017.3        1.179e+6 
         3017.6        1.095e+6 
         3017.9        1.003e+6 
         3018.2          905200 
         3018.5          803300 
         3018.8          700600 
         3019.1          600300 
         3019.4          508000 
         3019.7          429800 
           3020          372500 
         3020.3          342400 
         3020.6          345700 
         3020.9          386500 
         3021.2          465100 
         3021.5          577600 
         3021.8          715400 
         3022.1          865800 
         3022.4        1.014e+6 
         3022.7        1.146e+6 
           3023        1.248e+6 
         3023.3        1.314e+6 
         3023.6        1.341e+6 
         3023.9        1.333e+6 
         3024.2        1.294e+6 
         3024.5        1.236e+6 
         3024.8        1.169e+6 
         3025.1        1.109e+6 
         3025.4         1.07e+6 
         3025.7        1.068e+6 
           3026        1.111e+6 
         3026.3        1.201e+6 
         3026.6         1.33e+6 
         3026.9        1.482e+6 
         3027.2        1.637e+6 
         3027.5        1.774e+6 
         3027.8        1.876e+6 
         3028.1        1.936e+6 
         3028.4        1.948e+6 
         3028.7        1.919e+6 
           3029        1.857e+6 
         3029.3        1.772e+6 
         3029.6        1.678e+6 
         3029.9        1.584e+6 
         3030.2        1.502e+6 
         3030.5        1.439e+6 
         3030.8        1.401e+6 
         3031.1        1.393e+6 
         3031.4        1.417e+6 
         3031.7        1.469e+6 
           3032         1.54e+6 
         3032.3        1.622e+6 
         3032.6        1.703e+6 
         3032.9        1.777e+6 
         3033.2         1.84e+6 
         3033.5        1.893e+6 
         3033.8        1.938e+6 
         3034.1        1.975e+6 
         3034.4        2.003e+6 
         3034.7        2.015e+6 
           3035          2.0e+6 
         3035.3        1.951e+6 
         3035.6        1.859e+6 
         3035.9        1.725e+6 
         3036.2        1.561e+6 
         3036.5        1.382e+6 
         3036.8        1.211e+6 
         3037.1        1.073e+6 
         3037.4          983700 
         3037.7          953600 
           3038          981500 
         3038.3        1.057e+6 
         3038.6        1.161e+6 
         3038.9        1.272e+6 
         3039.2        1.372e+6 
         3039.5        1.446e+6 
         3039.8        1.484e+6 
         3040.1        1.487e+6 
         3040.4        1.458e+6 
         3040.7        1.409e+6 
           3041        1.352e+6 
         3041.3        1.301e+6 
         3041.6        1.267e+6 
         3041.9        1.259e+6 
         3042.2        1.281e+6 
         3042.5        1.332e+6 
         3042.8        1.404e+6 
         3043.1        1.484e+6 
         3043.4        1.563e+6 
         3043.7        1.629e+6 
           3044        1.677e+6 
         3044.3        1.705e+6 
         3044.6        1.712e+6 
         3044.9        1.698e+6 
         3045.2        1.663e+6 
         3045.5        1.606e+6 
         3045.8        1.525e+6 
         3046.1        1.424e+6 
         3046.4        1.309e+6 
         3046.7        1.196e+6 
           3047        1.099e+6 
         3047.3        1.035e+6 
         3047.6        1.017e+6 
         3047.9        1.048e+6 
         3048.2         1.12e+6 
         3048.5        1.217e+6 
         3048.8        1.321e+6 
         3049.1        1.414e+6 
         3049.4        1.484e+6 
         3049.7        1.532e+6 
           3050        1.567e+6 
         3050.3        1.603e+6 
         3050.6        1.656e+6 
         3050.9        1.732e+6 
         3051.2        1.829e+6 
         3051.5        1.932e+6 
         3051.8         2.02e+6 
         3052.1        2.073e+6 
         3052.4        2.077e+6 
         3052.7         2.03e+6 
           3053        1.942e+6 
         3053.3        1.833e+6 
         3053.6        1.726e+6 
         3053.9         1.64e+6 
         3054.2         1.59e+6 
         3054.5        1.578e+6 
         3054.8        1.595e+6 
         3055.1        1.625e+6 
         3055.4        1.647e+6 
         3055.7        1.643e+6 
           3056        1.601e+6 
         3056.3        1.519e+6 
         3056.6        1.402e+6 
         3056.9        1.265e+6 
         3057.2        1.125e+6 
         3057.5          998100 
         3057.8          897000 
         3058.1          830700 
         3058.4          803900 
         3058.7          820000 
           3059          879300 
         3059.3          980900 
         3059.6        1.118e+6 
         3059.9        1.281e+6 
         3060.2        1.453e+6 
         3060.5        1.616e+6 
         3060.8        1.753e+6 
         3061.1         1.85e+6 
         3061.4        1.899e+6 
         3061.7        1.898e+6 
           3062         1.85e+6 
         3062.3        1.762e+6 
         3062.6        1.647e+6 
         3062.9        1.518e+6 
         3063.2        1.389e+6 
         3063.5        1.273e+6 
         3063.8        1.179e+6 
         3064.1        1.114e+6 
         3064.4        1.074e+6 
         3064.7        1.053e+6 
           3065        1.039e+6 
         3065.3        1.024e+6 
         3065.6          998900 
         3065.9          963900 
         3066.2          924000 
         3066.5          889000 
         3066.8          871100 
         3067.1          881900 
         3067.4          927400 
         3067.7        1.009e+6 
           3068        1.122e+6 
         3068.3        1.253e+6 
         3068.6         1.39e+6 
         3068.9        1.517e+6 
         3069.2        1.624e+6 
         3069.5        1.703e+6 
         3069.8        1.753e+6 
         3070.1        1.778e+6 
         3070.4        1.782e+6 
         3070.7         1.77e+6 
           3071        1.748e+6 
         3071.3        1.718e+6 
         3071.6        1.685e+6 
         3071.9        1.656e+6 
         3072.2        1.637e+6 
         3072.5        1.633e+6 
         3072.8        1.645e+6 
         3073.1        1.668e+6 
         3073.4        1.691e+6 
         3073.7        1.706e+6 
           3074        1.703e+6 
         3074.3         1.68e+6 
         3074.6        1.645e+6 
         3074.9        1.607e+6 
         3075.2        1.583e+6 
         3075.5        1.584e+6 
         3075.8        1.612e+6 
         3076.1        1.663e+6 
         3076.4        1.722e+6 
         3076.7        1.774e+6 
           3077        1.806e+6 
         3077.3        1.812e+6 
         3077.6        1.795e+6 
         3077.9        1.764e+6 
         3078.2        1.732e+6 
         3078.5        1.707e+6 
         3078.8        1.696e+6 
         3079.1        1.695e+6 
         3079.4        1.698e+6 
         3079.7        1.696e+6 
           3080        1.679e+6 
         3080.3        1.645e+6 
         3080.6        1.595e+6 
         3080.9        1.534e+6 
         3081.2        1.471e+6 
         3081.5        1.415e+6 
         3081.8        1.376e+6 
         3082.1        1.358e+6 
         3082.4        1.366e+6 
         3082.7          1.4e+6 
           3083        1.462e+6 
         3083.3        1.548e+6 
         3083.6        1.657e+6 
         3083.9         1.78e+6 
         3084.2        1.907e+6 
         3084.5        2.025e+6 
         3084.8         2.12e+6 
         3085.1        2.178e+6 
         3085.4         2.19e+6 
         3085.7        2.149e+6 
           3086        2.058e+6 
         3086.3         1.93e+6 
         3086.6         1.78e+6 
         3086.9        1.629e+6 
         3087.2        1.495e+6 
         3087.5        1.394e+6 
         3087.8         1.33e+6 
         3088.1          1.3e+6 
         3088.4        1.293e+6 
         3088.7        1.294e+6 
           3089        1.292e+6 
         3089.3         1.28e+6 
         3089.6        1.256e+6 
         3089.9        1.226e+6 
         3090.2        1.197e+6 
         3090.5        1.175e+6 
         3090.8        1.161e+6 
         3091.1        1.154e+6 
         3091.4         1.15e+6 
         3091.7        1.142e+6 
           3092        1.128e+6 
         3092.3        1.108e+6 
         3092.6        1.088e+6 
         3092.9        1.076e+6 
         3093.2        1.079e+6 
         3093.5        1.102e+6 
         3093.8        1.142e+6 
         3094.1        1.191e+6 
         3094.4        1.239e+6 
         3094.7        1.275e+6 
           3095         1.29e+6 
         3095.3        1.282e+6 
         3095.6        1.253e+6 
         3095.9        1.211e+6 
         3096.2        1.168e+6 
         3096.5        1.135e+6 
         3096.8        1.117e+6 
         3097.1        1.114e+6 
         3097.4         1.12e+6 
         3097.7        1.123e+6 
           3098         1.11e+6 
         3098.3        1.071e+6 
         3098.6        1.003e+6 
         3098.9          911500 
         3099.2          806400 
         3099.5          701300 
         3099.8          610200 
         3100.1          544000 
         3100.4          510100 
         3100.7          511800 
           3101          550800 
         3101.3          626000 
         3101.6          734500 
         3101.9          869900 
         3102.2        1.023e+6 
         3102.5         1.18e+6 
         3102.8        1.328e+6 
         3103.1        1.453e+6 
         3103.4        1.545e+6 
         3103.7        1.598e+6 
           3104        1.614e+6 
         3104.3          1.6e+6 
         3104.6        1.567e+6 
         3104.9         1.53e+6 
         3105.2        1.503e+6 
         3105.5        1.496e+6 
         3105.8        1.517e+6 
         3106.1        1.564e+6 
         3106.4        1.633e+6 
         3106.7        1.714e+6 
           3107        1.797e+6 
         3107.3        1.872e+6 
         3107.6         1.93e+6 
         3107.9        1.968e+6 
         3108.2        1.984e+6 
         3108.5         1.98e+6 
         3108.8        1.959e+6 
         3109.1        1.928e+6 
         3109.4        1.895e+6 
         3109.7        1.869e+6 
           3110        1.859e+6 
         3110.3        1.868e+6 
         3110.6        1.896e+6 
         3110.9        1.939e+6 
         3111.2        1.987e+6 
         3111.5         2.03e+6 
         3111.8        2.058e+6 
         3112.1        2.064e+6 
         3112.4        2.045e+6 
         3112.7        2.003e+6 
           3113        1.944e+6 
         3113.3        1.878e+6 
         3113.6        1.818e+6 
         3113.9        1.775e+6 
         3114.2        1.757e+6 
         3114.5        1.766e+6 
         3114.8        1.795e+6 
         3115.1        1.834e+6 
         3115.4        1.869e+6 
         3115.7        1.883e+6 
           3116        1.867e+6 
         3116.3        1.817e+6 
         3116.6        1.737e+6 
         3116.9        1.638e+6 
         3117.2        1.532e+6 
         3117.5         1.43e+6 
         3117.8        1.342e+6 
         3118.1        1.273e+6 
         3118.4        1.224e+6 
         3118.7        1.194e+6 
           3119        1.181e+6 
         3119.3        1.181e+6 
         3119.6        1.192e+6 
         3119.9        1.212e+6 
         3120.2        1.236e+6 
         3120.5        1.259e+6 
         3120.8        1.274e+6 
         3121.1        1.278e+6 
         3121.4        1.271e+6 
         3121.7        1.258e+6 
           3122        1.247e+6 
         3122.3        1.245e+6 
         3122.6         1.26e+6 
         3122.9        1.291e+6 
         3123.2        1.333e+6 
         3123.5        1.378e+6 
         3123.8        1.416e+6 
         3124.1         1.44e+6 
         3124.4        1.448e+6 
         3124.7        1.445e+6 
           3125        1.439e+6 
         3125.3         1.44e+6 
         3125.6        1.458e+6 
         3125.9        1.495e+6 
         3126.2        1.549e+6 
         3126.5         1.61e+6 
         3126.8        1.666e+6 
         3127.1        1.709e+6 
         3127.4         1.73e+6 
         3127.7        1.728e+6 
           3128        1.707e+6 
         3128.3        1.675e+6 
         3128.6        1.639e+6 
         3128.9        1.605e+6 
         3129.2        1.574e+6 
         3129.5        1.545e+6 
         3129.8        1.517e+6 
         3130.1        1.489e+6 
         3130.4        1.463e+6 
         3130.7         1.44e+6 
           3131        1.421e+6 
         3131.3        1.406e+6 
         3131.6        1.394e+6 
         3131.9        1.381e+6 
         3132.2        1.366e+6 
         3132.5        1.348e+6 
         3132.8        1.327e+6 
         3133.1        1.307e+6 
         3133.4        1.294e+6 
         3133.7        1.293e+6 
           3134        1.309e+6 
         3134.3        1.346e+6 
         3134.6        1.399e+6 
         3134.9         1.46e+6 
         3135.2         1.52e+6 
         3135.5        1.569e+6 
         3135.8        1.602e+6 
         3136.1        1.621e+6 
         3136.4         1.63e+6 
         3136.7        1.633e+6 
           3137        1.635e+6 
         3137.3        1.636e+6 
         3137.6        1.635e+6 
         3137.9        1.629e+6 
         3138.2         1.62e+6 
         3138.5         1.61e+6 
         3138.8        1.604e+6 
         3139.1        1.607e+6 
         3139.4        1.623e+6 
         3139.7        1.652e+6 
           3140        1.693e+6 
         3140.3        1.739e+6 
         3140.6        1.784e+6 
         3140.9        1.816e+6 
         3141.2        1.827e+6 
         3141.5        1.806e+6 
         3141.8        1.751e+6 
         3142.1        1.659e+6 
         3142.4        1.534e+6 
         3142.7        1.383e+6 
           3143        1.218e+6 
         3143.3        1.052e+6 
         3143.6          900800 
         3143.9          778000 
         3144.2          693100 
         3144.5          651500 
         3144.8          652400 
         3145.1          689300 
         3145.4          752300 
         3145.7          829000 
           3146          908600 
         3146.3          984100 
         3146.6        1.053e+6 
         3146.9        1.119e+6 
         3147.2        1.185e+6 
         3147.5        1.256e+6 
         3147.8        1.335e+6 
         3148.1        1.419e+6 
         3148.4        1.504e+6 
         3148.7        1.584e+6 
           3149        1.653e+6 
         3149.3        1.711e+6 
         3149.6        1.756e+6 
         3149.9        1.792e+6 
         3150.2         1.82e+6 
         3150.5        1.838e+6 
         3150.8        1.846e+6 
         3151.1        1.844e+6 
         3151.4        1.832e+6 
         3151.7        1.815e+6 
           3152          1.8e+6 
         3152.3        1.791e+6 
         3152.6         1.79e+6 
         3152.9        1.794e+6 
         3153.2        1.798e+6 
         3153.5        1.795e+6 
         3153.8         1.78e+6 
         3154.1        1.752e+6 
         3154.4        1.715e+6 
         3154.7        1.671e+6 
           3155        1.623e+6 
         3155.3         1.57e+6 
         3155.6        1.509e+6 
         3155.9        1.438e+6 
         3156.2        1.353e+6 
         3156.5        1.255e+6 
         3156.8        1.151e+6 
         3157.1        1.048e+6 
         3157.4          955800 
         3157.7          881300 
           3158          830000 
         3158.3          803400 
         3158.6          798100 
         3158.9          808600 
         3159.2          828300 
         3159.5          849000 
         3159.8          865300 
         3160.1          872800 
         3160.4          873100 
         3160.7          870100 
           3161          870800 
         3161.3          881800 
         3161.6          909200 
         3161.9          954800 
         3162.2        1.016e+6 
         3162.5        1.086e+6 
         3162.8        1.155e+6 
         3163.1        1.216e+6 
         3163.4        1.258e+6 
         3163.7         1.28e+6 
           3164        1.284e+6 
         3164.3        1.276e+6 
         3164.6        1.268e+6 
         3164.9        1.266e+6 
         3165.2        1.279e+6 
         3165.5        1.308e+6 
         3165.8        1.351e+6 
         3166.1          1.4e+6 
         3166.4        1.447e+6 
         3166.7        1.484e+6 
           3167        1.502e+6 
         3167.3        1.498e+6 
         3167.6        1.474e+6 
         3167.9        1.436e+6 
         3168.2        1.396e+6 
         3168.5        1.366e+6 
         3168.8        1.358e+6 
         3169.1        1.379e+6 
         3169.4         1.43e+6 
         3169.7        1.504e+6 
           3170        1.595e+6 
         3170.3         1.69e+6 
         3170.6        1.782e+6 
         3170.9        1.863e+6 
         3171.2        1.932e+6 
         3171.5        1.987e+6 
         3171.8        2.026e+6 
         3172.1        2.049e+6 
         3172.4        2.051e+6 
         3172.7        2.033e+6 
           3173        1.995e+6 
         3173.3        1.941e+6 
         3173.6        1.881e+6 
         3173.9        1.823e+6 
         3174.2        1.776e+6 
         3174.5        1.752e+6 
         3174.8        1.754e+6 
         3175.1        1.784e+6 
         3175.4        1.837e+6 
         3175.7        1.904e+6 
           3176         1.97e+6 
         3176.3         2.02e+6 
         3176.6        2.042e+6 
         3176.9        2.029e+6 
         3177.2        1.981e+6 
         3177.5        1.903e+6 
         3177.8        1.803e+6 
         3178.1        1.691e+6 
