# Granada HRES Library
# atmosphere = Phoenix  (atmosphere model used)
# feh = 0  (value for [Fe/H] for the model.)
# logg = 2 log(cm/s2) (value for Log(G) for the model.)
# teff = 3500 K (value for the effective temperature for the model. Temperatures are given in K)
#
# column 1: WAVELENGTH (ANGSTROM), Wavelength in Angstrom
# column 2: FLUX (ERG/CM2/S/A), Flux in erg/cm2/s/A
         3000.2           169.2 
         3000.5           148.7 
         3000.8           135.6 
         3001.1           128.7 
         3001.4           125.4 
         3001.7           122.6 
           3002             119 
         3002.3           115.2 
         3002.6           114.5 
         3002.9           120.7 
         3003.2           136.6 
         3003.5           163.2 
         3003.8           199.1 
         3004.1           240.5 
         3004.4           282.8 
         3004.7           321.1 
           3005             351 
         3005.3           369.1 
         3005.6           373.3 
         3005.9           363.6 
         3006.2           342.1 
         3006.5           313.2 
         3006.8           281.8 
         3007.1           253.5 
         3007.4           232.4 
         3007.7           221.3 
           3008           221.4 
         3008.3           232.5 
         3008.6           253.6 
         3008.9           284.1 
         3009.2           323.3 
         3009.5           369.5 
         3009.8           417.4 
         3010.1             458 
         3010.4           481.6 
         3010.7             482 
           3011           461.3 
         3011.3           428.7 
         3011.6           396.7 
         3011.9           375.2 
         3012.2           367.9 
         3012.5           372.4 
         3012.8           382.9 
         3013.1           393.7 
         3013.4           401.2 
         3013.7             404 
           3014           402.7 
         3014.3           398.6 
         3014.6           393.9 
         3014.9           390.8 
         3015.2           390.1 
         3015.5           391.5 
         3015.8           393.1 
         3016.1             393 
         3016.4           389.3 
         3016.7           381.1 
           3017           367.9 
         3017.3             351 
         3017.6           332.3 
         3017.9           313.3 
         3018.2           293.4 
         3018.5           271.5 
         3018.8           246.4 
         3019.1           218.1 
         3019.4           187.9 
         3019.7           158.2 
           3020           132.2 
         3020.3           112.8 
         3020.6           103.3 
         3020.9           105.7 
         3021.2           120.6 
         3021.5           146.1 
         3021.8           178.9 
         3022.1           213.6 
         3022.4           244.4 
         3022.7           266.1 
           3023           275.3 
         3023.3           271.3 
         3023.6           256.7 
         3023.9           236.7 
         3024.2           216.7 
         3024.5           200.5 
         3024.8             189 
         3025.1           181.8 
         3025.4           178.4 
         3025.7           179.4 
           3026           185.5 
         3026.3           196.6 
         3026.6           210.6 
         3026.9           224.3 
         3027.2           235.7 
         3027.5           244.8 
         3027.8           254.3 
         3028.1           268.3 
         3028.4           289.5 
         3028.7           318.3 
           3029           351.5 
         3029.3           383.5 
         3029.6           408.6 
         3029.9           423.9 
         3030.2           430.4 
         3030.5             434 
         3030.8           443.4 
         3031.1           466.5 
         3031.4           506.3 
         3031.7           557.2 
           3032           605.1 
         3032.3             633 
         3032.6           628.6 
         3032.9           590.7 
         3033.2           529.5 
         3033.5           462.4 
         3033.8           405.9 
         3034.1           371.4 
         3034.4           361.4 
         3034.7           370.6 
           3035           388.5 
         3035.3           403.6 
         3035.6           407.1 
         3035.9           395.1 
         3036.2           369.2 
         3036.5           335.5 
         3036.8           302.9 
         3037.1           280.6 
         3037.4           275.5 
         3037.7           289.2 
           3038           317.8 
         3038.3           353.8 
         3038.6           389.8 
         3038.9           421.4 
         3039.2           447.5 
         3039.5           468.1 
         3039.8           481.9 
         3040.1           485.7 
         3040.4           477.2 
         3040.7           457.4 
           3041           432.2 
         3041.3           410.5 
         3041.6           401.4 
         3041.9           409.6 
         3042.2           433.1 
         3042.5           463.9 
         3042.8           491.5 
         3043.1           507.9 
         3043.4           510.9 
         3043.7           504.5 
           3044           495.7 
         3044.3           491.3 
         3044.6           495.3 
         3044.9           507.1 
         3045.2           522.1 
         3045.5           532.7 
         3045.8           530.2 
         3046.1           508.5 
         3046.4           466.9 
         3046.7           410.7 
           3047           350.2 
         3047.3           297.2 
         3047.6           261.5 
         3047.9           248.4 
         3048.2           258.5 
         3048.5           287.8 
         3048.8           328.8 
         3049.1           371.2 
         3049.4           404.3 
         3049.7           420.2 
           3050           417.1 
         3050.3           399.4 
         3050.6             376 
         3050.9           355.5 
         3051.2           342.9 
         3051.5           339.2 
         3051.8           342.1 
         3052.1           347.4 
         3052.4           350.7 
         3052.7           348.6 
           3053           339.5 
         3053.3           324.9 
         3053.6           308.6 
         3053.9           295.1 
         3054.2           287.5 
         3054.5           286.4 
         3054.8           289.6 
         3055.1           293.4 
         3055.4           294.4 
         3055.7           291.2 
           3056           284.5 
         3056.3           276.7 
         3056.6           270.5 
         3056.9           268.1 
         3057.2             270 
         3057.5           274.5 
         3057.8           278.4 
         3058.1           278.9 
         3058.4           275.7 
         3058.7           272.2 
           3059           274.5 
         3059.3           288.4 
         3059.6           316.4 
         3059.9           356.3 
         3060.2           402.1 
         3060.5           446.6 
         3060.8           483.1 
         3061.1           507.7 
         3061.4           519.4 
         3061.7             518 
           3062           503.5 
         3062.3             475 
         3062.6           432.6 
         3062.9           380.1 
         3063.2           325.1 
         3063.5           277.4 
         3063.8           244.9 
         3064.1           230.3 
         3064.4             230 
         3064.7           236.8 
           3065           243.9 
         3065.3           248.5 
         3065.6           252.7 
         3065.9           260.9 
         3066.2           276.8 
         3066.5           300.1 
         3066.8           326.8 
         3067.1             352 
         3067.4           372.7 
         3067.7           389.4 
           3068           404.2 
         3068.3           417.8 
         3068.6           427.6 
         3068.9           428.4 
         3069.2             416 
         3069.5             391 
         3069.8           359.7 
         3070.1           331.8 
         3070.4           316.7 
         3070.7           319.5 
           3071           340.5 
         3071.3           376.3 
         3071.6           422.3 
         3071.9           474.5 
         3072.2             529 
         3072.5           581.3 
         3072.8             626 
         3073.1           658.3 
         3073.4           675.6 
         3073.7           677.7 
           3074           666.4 
         3074.3           644.9 
         3074.6           618.8 
         3074.9           596.8 
         3075.2           588.8 
         3075.5           602.2 
         3075.8           637.1 
         3076.1           683.5 
         3076.4           725.4 
         3076.7           747.8 
           3077             744 
         3077.3             718 
         3077.6           680.7 
         3077.9           643.9 
         3078.2           614.5 
         3078.5           592.8 
         3078.8           573.8 
         3079.1             551 
         3079.4           520.4 
         3079.7           481.4 
           3080           436.2 
         3080.3           388.6 
         3080.6           342.4 
         3080.9           301.4 
         3081.2           269.3 
         3081.5             249 
         3081.8           242.1 
         3082.1           246.9 
         3082.4           258.8 
         3082.7           271.7 
           3083           281.1 
         3083.3           286.6 
         3083.6           291.8 
         3083.9           302.3 
         3084.2           322.8 
         3084.5           355.2 
         3084.8           397.7 
         3085.1           445.6 
         3085.4           491.9 
         3085.7           531.2 
           3086           562.2 
         3086.3           589.9 
         3086.6           623.4 
         3086.9             671 
         3087.2           735.5 
         3087.5           810.9 
         3087.8           882.6 
         3088.1           931.2 
         3088.4           939.4 
         3088.7           899.6 
           3089           817.6 
         3089.3           710.7 
         3089.6           600.1 
         3089.9           503.1 
         3090.2           427.8 
         3090.5           373.4 
         3090.8             334 
         3091.1           302.9 
         3091.4           275.8 
         3091.7           251.6 
           3092           232.6 
         3092.3           223.3 
         3092.6           228.9 
         3092.9           253.1 
         3093.2           295.7 
         3093.5           352.2 
         3093.8           414.6 
         3094.1           474.3 
         3094.4           523.5 
         3094.7           556.1 
           3095           568.2 
         3095.3           559.6 
         3095.6             536 
         3095.9           510.3 
         3096.2           501.1 
         3096.5           526.1 
         3096.8           593.9 
         3097.1           696.9 
         3097.4           810.1 
         3097.7           898.4 
           3098             930 
         3098.3           890.6 
         3098.6           789.3 
         3098.9           654.4 
         3099.2           520.6 
         3099.5           416.2 
         3099.8           353.8 
         3100.1           330.6 
         3100.4           333.5 
         3100.7           348.1 
           3101           366.4 
         3101.3           427.4 
         3101.6             492 
         3101.9             588 
         3102.2           708.7 
         3102.5           835.8 
         3102.8             947 
         3103.1            1027 
         3103.4            1070 
         3103.7            1084 
           3104            1078 
         3104.3            1054 
         3104.6            1005 
         3104.9           929.5 
         3105.2           829.4 
         3105.5           716.4 
         3105.8           606.9 
         3106.1           515.8 
         3106.4             453 
         3106.7           422.4 
           3107           422.6 
         3107.3           447.2 
         3107.6           485.3 
         3107.9           524.5 
         3108.2           553.9 
         3108.5           567.9 
         3108.8           567.8 
         3109.1           561.1 
         3109.4             559 
         3109.7           572.5 
           3110           607.5 
         3110.3             662 
         3110.6           724.1 
         3110.9           774.5 
         3111.2           794.7 
         3111.5           774.2 
         3111.8           716.2 
         3112.1           636.5 
         3112.4           555.7 
         3112.7           492.2 
           3113           457.6 
         3113.3           456.5 
         3113.6           488.4 
         3113.9             551 
         3114.2           640.3 
         3114.5           750.4 
         3114.8           869.5 
         3115.1           979.4 
         3115.4            1058 
         3115.7            1085 
           3116            1056 
         3116.3           982.6 
         3116.6             896 
         3116.9           831.5 
         3117.2           815.4 
         3117.5           854.8 
         3117.8           936.2 
         3118.1            1034 
         3118.4            1119 
         3118.7            1171 
           3119            1186 
         3119.3            1171 
         3119.6            1144 
         3119.9            1121 
         3120.2            1105 
         3120.5            1086 
         3120.8            1046 
         3121.1           972.3 
         3121.4           873.4 
         3121.7           774.8 
           3122           709.8 
         3122.3           701.5 
         3122.6           750.5 
         3122.9           834.4 
         3123.2           918.8 
         3123.5             974 
         3123.8           988.8 
         3124.1           973.2 
         3124.4           949.8 
         3124.7           939.9 
           3125           951.7 
         3125.3           978.1 
         3125.6            1005 
         3125.9            1022 
         3126.2            1026 
         3126.5            1021 
         3126.8            1007 
         3127.1           980.1 
         3127.4           934.1 
         3127.7           869.1 
           3128           791.5 
         3128.3           713.4 
         3128.6           646.6 
         3128.9           599.5 
         3129.2           575.2 
         3129.5           572.9 
         3129.8           590.9 
         3130.1           630.3 
         3130.4           695.2 
         3130.7           787.4 
           3131           899.5 
         3131.3            1012 
         3131.6            1097 
         3131.9            1134 
         3132.2            1117 
         3132.5            1056 
         3132.8           975.1 
         3133.1           894.3 
         3133.4           830.7 
         3133.7           794.9 
           3134             791 
         3134.3           813.8 
         3134.6           847.1 
         3134.9           869.7 
         3135.2           866.4 
         3135.5           836.5 
         3135.8           794.5 
         3136.1             761 
         3136.4           753.5 
         3136.7           780.5 
           3137           839.9 
         3137.3           921.2 
         3137.6            1007 
         3137.9            1077 
         3138.2            1117 
         3138.5            1121 
         3138.8            1099 
         3139.1            1069 
         3139.4            1051 
         3139.7            1062 
           3140            1107 
         3140.3            1177 
         3140.6            1255 
         3140.9            1325 
         3141.2            1376 
         3141.5            1411 
         3141.8            1434 
         3142.1            1446 
         3142.4            1433 
         3142.7            1380 
           3143            1286 
         3143.3            1165 
         3143.6            1044 
         3143.9             943 
         3144.2           866.5 
         3144.5           809.6 
         3144.8           763.8 
         3145.1           723.7 
         3145.4           688.8 
         3145.7           662.4 
           3146           649.3 
         3146.3           655.9 
         3146.6           688.3 
         3146.9           749.9 
         3147.2           841.2 
         3147.5           959.9 
         3147.8            1101 
         3148.1            1254 
         3148.4            1403 
         3148.7            1522 
           3149            1596 
         3149.3            1614 
         3149.6            1583 
         3149.9            1516 
         3150.2            1425 
         3150.5            1314 
         3150.8            1188 
         3151.1            1058 
         3151.4           937.1 
         3151.7           835.1 
           3152           758.9 
         3152.3           707.6 
         3152.6           675.9 
         3152.9           658.6 
         3153.2           655.2 
         3153.5           669.7 
         3153.8           707.5 
         3154.1           769.5 
         3154.4           845.9 
         3154.7           918.3 
           3155           968.1 
         3155.3           987.1 
         3155.6             982 
         3155.9           968.7 
         3156.2           962.7 
         3156.5           971.4 
         3156.8           992.8 
         3157.1            1020 
         3157.4            1047 
         3157.7            1073 
           3158            1100 
         3158.3            1134 
         3158.6            1173 
         3158.9            1210 
         3159.2            1228 
         3159.5            1217 
         3159.8            1180 
         3160.1            1133 
         3160.4            1102 
         3160.7            1101 
           3161            1128 
         3161.3            1168 
         3161.6            1209 
         3161.9            1248 
         3162.2            1295 
         3162.5            1360 
         3162.8            1441 
         3163.1            1529 
         3163.4            1610 
         3163.7            1675 
           3164            1723 
         3164.3            1748 
         3164.6            1744 
         3164.9            1710 
         3165.2            1656 
         3165.5            1603 
         3165.8            1578 
         3166.1            1605 
         3166.4            1694 
         3166.7            1839 
           3167            2008 
         3167.3            2155 
         3167.6            2236 
         3167.9            2224 
         3168.2            2134 
         3168.5            2009 
         3168.8            1900 
         3169.1            1839 
         3169.4            1822 
         3169.7            1818 
           3170            1792 
         3170.3            1732 
         3170.6            1651 
         3170.9            1574 
         3171.2            1530 
         3171.5            1525 
         3171.8            1550 
         3172.1            1580 
         3172.4            1599 
         3172.7            1611 
           3173            1635 
         3173.3            1694 
         3173.6            1798 
         3173.9            1937 
         3174.2            2083 
         3174.5            2206 
         3174.8            2289 
         3175.1            2327 
         3175.4            2323 
         3175.7            2280 
           3176            2200 
         3176.3            2092 
         3176.6            1970 
         3176.9            1855 
         3177.2            1767 
         3177.5            1714 
         3177.8            1697 
         3178.1            1702 
